DTS Sentinel unit serial number:	SN307009Multiplexer serial number:	multiplexer serial numberHardware model number:	HL4Software version number:	Halo DTS v1.0data status	okinstallation	NYAN30AUG2019differential loss correction	combinedforward channel	channel 1reverse channel	channel 1 reversedate	2003/01/11time	03:22:09forward acquisition time	60.05reverse acquisition time	60.05gamma	510.3900k internal	0.1898k external	0.1898temperature offset calibration	1.0000default loss term (dB/km)	0.3938temperature slope calibration	NaNmultiplexer offset coefficient	1.0000multiplexer slope coefficient	1.0000fibre end	1298.10T internal ref (°C)	34.25T ext. ref 1 (°C)	NaNT ext. ref 2 (°C)	NaNlength (m)	temperature (°C)	forward Stokes	forward anti-Stokes	reverse Stokes	reverse anti-Stokes-584.984	108.282	0.016	-0.018	0.056	-0.104
-582.954	700.000	-0.010	0.070	0.030	-0.002
-580.925	72.168	0.123	-0.104	-0.069	-0.003
-578.896	167.787	-0.096	0.152	-0.096	0.065
-576.867	8.182	-0.111	-0.048	-0.012	0.056
-574.838	189.949	0.034	-0.060	-0.113	-0.087
-572.808	626.048	0.024	0.127	0.063	-0.064
-570.779	367.636	-0.029	-0.094	-0.033	-0.163
-568.750	-49.438	0.033	-0.006	0.024	-0.148
-566.721	82.919	0.026	-0.024	0.059	-0.103
-564.692	-154.342	-0.043	-0.000	-0.006	0.061
-562.662	43.218	0.109	0.070	0.028	-0.029
-560.633	-73.340	-0.067	0.007	0.062	0.031
-558.604	96.718	0.035	-0.035	-0.063	-0.017
-556.575	700.000	-0.006	-0.093	0.055	0.030
-554.546	123.281	0.028	-0.034	0.071	-0.046
-552.517	51.799	-0.050	0.035	-0.113	0.011
-550.487	55.752	0.019	0.014	0.080	0.050
-548.458	18.034	0.088	-0.043	0.047	-0.063
-546.429	138.257	-0.052	0.070	0.056	-0.021
-544.400	364.582	-0.024	-0.078	0.113	0.080
-542.371	90.304	-0.032	0.031	0.111	0.028
-540.341	260.539	0.045	-0.107	-0.083	0.005
-538.312	66.886	0.121	-0.097	0.008	0.016
-536.283	-11.663	0.159	-0.052	0.079	-0.036
-534.254	212.053	-0.059	-0.117	-0.175	0.079
-532.225	255.853	0.077	0.182	-0.094	0.123
-530.195	53.395	-0.134	0.095	0.026	0.060
-528.166	21.034	-0.101	0.051	-0.002	0.000
-526.137	116.677	-0.036	0.043	0.082	0.009
-524.108	367.367	0.007	-0.023	0.104	-0.011
-522.079	-100.383	-0.115	-0.005	0.041	0.088
-520.049	251.696	-0.042	-0.098	-0.087	-0.050
-518.020	20.839	-0.063	0.032	0.138	-0.071
-515.991	-80.944	-0.097	-0.008	0.068	-0.034
-513.962	-73.941	-0.113	-0.011	-0.117	-0.139
-511.933	432.573	0.017	-0.064	0.006	0.062
-509.904	82.503	0.067	0.061	0.127	-0.017
-507.874	92.474	-0.010	0.009	0.177	0.033
-505.845	4.189	0.071	0.029	-0.071	-0.090
-503.816	54.289	0.051	-0.037	0.152	-0.057
-501.787	145.955	-0.043	0.061	0.093	0.062
-499.758	-200.000	-0.001	0.086	0.044	0.053
-497.728	31.458	-0.050	0.028	0.032	-0.007
-495.699	633.029	0.026	0.136	0.066	0.075
-493.670	65.908	-0.029	0.023	-0.003	-0.014
-491.641	89.140	-0.071	0.069	0.009	-0.135
-489.612	-5.179	-0.016	-0.006	-0.018	0.032
-487.582	296.586	-0.026	-0.069	-0.044	-0.135
-485.553	52.944	0.054	0.038	0.050	-0.064
-483.524	498.697	-0.030	0.130	0.017	0.019
-481.495	-41.091	0.089	-0.018	0.112	-0.096
-479.466	-85.867	0.120	-0.008	-0.119	-0.034
-477.437	61.853	-0.089	0.068	-0.009	0.076
-475.407	398.018	0.022	0.078	-0.054	0.028
-473.378	36.138	-0.070	-0.042	-0.113	0.062
-471.349	-200.000	0.002	0.044	0.058	0.032
-469.320	-49.552	0.102	0.017	-0.017	-0.104
-467.291	110.994	-0.047	0.053	-0.034	0.013
-465.261	42.831	0.061	-0.039	-0.037	-0.053
-463.232	460.508	-0.021	-0.084	0.038	-0.005
-461.203	229.421	0.019	-0.041	0.071	0.002
-459.174	74.213	0.097	-0.083	-0.060	0.022
-457.145	207.274	-0.049	-0.095	-0.033	-0.164
-455.115	382.306	0.075	-0.256	0.010	0.057
-453.086	142.672	0.049	0.068	-0.079	0.000
-451.057	284.244	0.033	-0.086	-0.018	-0.053
-449.028	-8.476	0.026	0.009	-0.092	-0.023
-446.999	7.019	-0.028	0.012	0.047	0.032
-444.969	34.070	0.070	0.041	0.068	0.014
-442.940	4.686	0.015	-0.006	0.078	0.026
-440.911	86.901	-0.087	-0.082	0.025	0.032
-438.882	481.635	0.033	-0.137	-0.063	0.041
-436.853	11.914	-0.038	-0.017	-0.029	0.054
-434.824	135.164	0.079	-0.104	0.098	-0.074
-432.794	72.470	-0.070	-0.059	-0.030	0.054
-430.765	79.805	0.142	-0.127	-0.027	0.054
-428.736	235.423	-0.053	0.115	0.054	-0.026
-426.707	700.000	-0.007	0.085	0.100	-0.089
-424.678	175.765	0.028	0.047	-0.009	0.097
-422.648	485.456	-0.024	0.100	0.073	-0.050
-420.619	134.051	0.046	-0.061	-0.024	-0.213
-418.590	677.302	-0.003	-0.017	-0.036	0.039
-416.561	163.796	-0.043	0.068	0.004	0.177
-414.532	141.076	-0.033	0.045	0.056	-0.083
-412.502	-7.755	0.046	-0.016	0.014	0.053
-410.473	280.429	-0.009	-0.023	-0.015	0.286
-408.444	218.011	-0.018	-0.036	-0.051	-0.025
-406.415	174.939	0.090	-0.149	0.009	0.069
-404.386	700.000	-0.007	-0.043	-0.038	0.103
-402.357	259.598	0.034	0.082	0.102	0.192
-400.327	151.930	-0.072	-0.106	-0.110	0.018
-398.298	380.683	0.042	-0.142	-0.083	-0.062
-396.269	-1.637	0.080	-0.030	-0.001	0.050
-394.240	73.400	-0.095	0.081	-0.094	-0.093
-392.211	29.488	0.163	0.090	-0.055	0.023
-390.181	118.082	0.117	0.139	-0.006	-0.063
-388.152	-32.743	-0.077	-0.018	-0.158	0.107
-386.123	67.189	-0.089	-0.071	-0.091	-0.072
-384.094	53.756	-0.029	-0.021	0.017	0.041
-382.065	127.513	-0.083	-0.105	0.055	0.026
-380.035	352.870	0.039	0.122	-0.104	-0.150
-378.006	362.076	0.026	0.084	0.056	-0.015
-375.977	116.262	-0.025	-0.030	-0.079	-0.058
-373.948	12.470	-0.103	0.047	-0.044	-0.098
-371.919	20.987	0.061	0.031	-0.007	0.044
-369.889	268.250	0.044	0.108	0.041	-0.052
-367.860	94.572	-0.055	-0.056	0.123	-0.162
-365.831	29.589	0.076	0.042	-0.107	-0.049
-363.802	48.437	-0.024	0.016	-0.005	0.078
-361.773	-0.736	0.090	-0.034	0.108	-0.058
-359.744	34.081	0.051	-0.030	0.042	0.017
-357.714	18.158	-0.103	-0.050	-0.078	-0.044
-355.685	44.322	0.061	0.040	0.153	-0.011
-353.656	42.112	-0.115	-0.073	0.031	0.155
-351.627	-200.000	0.002	0.037	-0.020	-0.137
-349.598	17.270	-0.086	0.041	0.047	-0.063
-347.568	197.548	-0.056	0.104	0.140	0.013
-345.539	380.106	-0.041	-0.138	0.077	-0.045
-343.510	55.344	-0.052	-0.037	0.073	-0.145
-341.481	119.088	-0.097	0.116	-0.119	-0.142
-339.452	155.740	0.107	0.160	0.134	0.032
-337.422	-23.574	0.099	-0.027	-0.105	-0.165
-335.393	-160.436	-0.079	0.000	0.079	0.049
-333.364	182.152	-0.021	-0.036	-0.041	-0.007
-331.335	13.742	-0.218	-0.100	0.138	0.165
-329.306	214.592	0.049	0.098	-0.068	0.105
-327.276	-38.814	-0.050	-0.010	-0.093	0.029
-325.247	700.000	0.015	-0.160	-0.023	0.000
-323.218	45.701	-0.078	-0.051	-0.034	0.064
-321.189	289.418	-0.066	0.173	0.039	0.086
-319.160	174.935	-0.042	-0.069	-0.088	0.047
-317.131	201.567	0.052	-0.097	-0.008	0.093
-315.101	700.000	0.018	0.113	-0.009	-0.015
-313.072	414.163	-0.018	0.067	0.092	-0.000
-311.043	225.515	0.055	-0.115	0.006	0.076
-309.014	-200.000	0.001	0.094	0.024	-0.073
-306.985	-30.662	-0.077	0.019	-0.015	-0.045
-304.955	498.299	0.019	-0.083	0.015	-0.100
-302.926	465.961	-0.030	0.120	-0.050	-0.149
-300.897	700.000	-0.006	-0.059	-0.221	0.094
-298.868	-55.317	0.116	0.017	-0.167	0.043
-296.839	38.056	-0.153	-0.093	0.089	0.117
-294.809	700.000	0.008	-0.052	0.012	0.001
-292.780	461.675	0.017	0.067	0.109	0.024
-290.751	-28.741	0.186	0.046	0.080	0.034
-288.722	377.810	0.045	0.150	-0.107	0.039
-286.693	-50.494	0.148	-0.024	0.119	-0.062
-284.664	91.168	-0.080	-0.079	0.032	0.112
-282.634	63.570	0.104	-0.081	0.036	-0.112
-280.605	526.398	-0.014	0.061	-0.036	0.038
-278.576	-23.119	-0.058	-0.016	-0.005	-0.113
-276.547	-3.491	-0.038	0.014	0.014	-0.067
-274.518	478.551	-0.033	-0.139	0.040	-0.119
-272.488	58.322	0.083	-0.062	0.130	0.053
-270.459	700.000	0.006	-0.085	0.078	-0.052
-268.430	59.120	0.048	-0.036	-0.037	-0.086
-266.401	177.250	0.039	-0.065	0.070	-0.093
-264.372	32.334	-0.071	-0.041	0.079	-0.066
-262.342	153.922	0.055	0.082	-0.008	0.027
-260.313	323.299	0.007	-0.021	0.080	-0.113
-258.284	167.003	-0.074	-0.118	0.106	-0.004
-256.255	151.656	-0.072	-0.105	-0.043	0.146
-254.226	-200.000	-0.007	0.181	-0.041	0.023
-252.196	115.772	0.042	-0.050	-0.042	-0.102
-250.167	700.000	0.003	-0.021	0.018	0.032
-248.138	22.594	0.124	0.064	-0.016	-0.111
-246.109	159.993	0.107	-0.164	-0.054	0.031
-244.080	66.857	-0.063	0.050	-0.062	-0.095
-242.051	165.946	-0.058	-0.092	-0.006	-0.007
-240.021	45.087	-0.069	0.045	-0.119	0.037
-237.992	18.784	-0.051	0.025	-0.032	0.033
-235.963	-61.351	0.183	0.024	0.183	-0.116
-233.934	533.561	-0.023	-0.104	0.019	0.050
-231.905	-36.883	-0.014	0.003	-0.025	-0.021
-229.875	13.206	0.077	0.035	-0.009	0.039
-227.846	700.000	0.011	-0.110	-0.125	0.002
-225.817	700.000	0.006	0.062	0.066	0.045
-223.788	-65.713	0.027	0.003	-0.023	0.169
-221.759	700.000	0.005	0.059	0.006	0.120
-219.729	522.113	-0.028	0.124	-0.002	0.064
-217.700	116.035	-0.022	-0.026	-0.026	-0.008
-215.671	-44.593	-0.051	0.010	0.170	0.107
-213.642	168.328	0.034	0.054	0.073	-0.025
-211.613	148.880	-0.144	0.207	0.035	-0.053
-209.584	189.164	-0.023	0.041	-0.020	-0.131
-207.554	124.052	-0.060	0.075	-0.068	-0.073
-205.525	99.745	-0.061	-0.063	-0.088	0.051
-203.496	34.786	0.074	0.043	-0.138	-0.064
-201.467	-15.611	0.048	-0.015	-0.083	0.047
-199.438	-45.245	-0.136	0.025	-0.057	0.150
-197.408	252.531	-0.049	-0.114	0.020	0.013
-195.379	46.724	0.129	-0.085	0.040	0.049
-193.350	220.838	0.043	0.088	-0.160	0.088
-191.321	133.375	0.088	0.115	-0.009	-0.039
-189.292	211.149	0.015	-0.030	-0.011	0.034
-187.262	73.521	0.033	-0.028	0.039	-0.041
-185.233	-4.530	-0.064	-0.023	-0.007	0.102
-183.204	169.709	0.015	0.024	0.005	-0.057
-181.175	21.869	0.070	-0.036	-0.122	0.018
-179.146	211.270	-0.019	0.037	-0.035	0.092
-177.116	700.000	0.019	0.188	0.031	-0.003
-175.087	56.891	-0.061	0.044	0.007	-0.051
-173.058	-40.729	-0.175	0.035	0.009	0.057
-171.029	-58.291	-0.147	-0.021	-0.148	-0.049
-169.000	406.082	0.030	0.110	0.011	-0.108
-166.971	29.568	0.098	-0.054	-0.150	0.057
-164.941	2.584	0.100	0.040	-0.036	-0.089
-162.912	14.951	-0.086	-0.040	0.080	0.173
-160.883	-28.381	0.138	-0.034	0.003	0.094
-158.854	146.940	-0.052	-0.074	-0.039	0.003
-156.825	40.863	0.056	0.035	0.045	0.031
-154.795	-43.173	0.117	0.022	0.050	-0.041
-152.766	-60.240	-0.113	-0.015	0.084	0.085
-150.737	59.754	-0.068	-0.051	-0.112	-0.107
-148.708	700.000	-0.011	-0.104	-0.068	0.068
-146.679	31.382	-0.027	-0.015	-0.074	0.007
-144.649	331.852	-0.029	0.085	-0.110	0.105
-142.620	700.000	0.020	0.134	-0.107	0.089
-140.591	-61.715	0.103	-0.013	0.041	0.004
-138.562	-92.133	0.045	-0.003	-0.090	-0.044
-136.533	-2.929	-0.062	-0.023	-0.089	-0.060
-134.503	259.953	0.036	0.085	0.095	0.042
-132.474	-49.301	-0.073	-0.012	0.050	0.084
-130.445	52.528	0.075	0.053	-0.067	0.130
-128.416	-18.091	-0.046	0.014	-0.056	0.048
-126.387	105.284	0.031	-0.034	0.035	-0.109
-124.358	99.763	0.086	0.090	-0.028	0.030
-122.328	-17.989	0.111	-0.033	-0.113	-0.024
-120.299	20.112	-0.060	-0.030	-0.013	-0.021
-118.270	-200.000	-0.005	0.122	0.054	-0.012
-116.241	61.168	0.063	-0.048	-0.058	-0.020
-114.212	95.963	-0.046	-0.047	-0.022	0.055
-112.182	123.000	-0.061	0.075	-0.100	0.097
-110.153	-69.668	-0.149	-0.016	0.015	-0.026
-108.124	-21.688	-0.098	-0.027	-0.013	0.083
-106.095	-19.549	0.048	0.014	0.053	0.106
-104.066	-8.612	-0.139	0.047	0.058	-0.110
-102.036	41.958	-0.049	-0.031	0.080	-0.032
-100.007	216.189	0.054	-0.128	-0.018	0.201
-97.978	258.847	0.038	-0.102	0.014	0.057
-95.949	-21.459	0.107	-0.037	-0.040	-0.029
-93.920	164.351	0.034	-0.065	-0.020	0.005
-91.891	53.336	-0.066	-0.072	-0.063	0.049
-89.861	132.778	0.011	-0.021	-0.090	-0.014
-87.832	-78.927	-0.239	0.024	-0.042	-0.088
-85.803	-66.183	0.177	0.026	-0.048	-0.078
-83.774	430.220	0.012	-0.075	-0.025	0.009
-81.745	394.168	-0.031	0.149	-0.022	0.041
-79.715	63.299	-0.088	-0.081	0.163	0.108
-77.686	87.732	-0.063	-0.064	0.014	-0.080
-75.657	-97.585	-0.068	0.004	0.040	-0.037
-73.628	116.381	-0.062	-0.100	-0.100	-0.045
-71.599	34.164	-0.082	0.100	0.081	-0.045
-69.569	12.121	0.060	0.038	-0.002	0.038
-67.540	48.381	0.053	-0.061	0.014	-0.031
-65.511	210.147	0.019	-0.057	0.011	0.011
-63.482	-26.245	0.043	-0.017	-0.008	-0.074
-61.453	559.941	0.440	-3.182	0.268	-3.104
-59.423	65.704	-1.139	1.659	-1.115	1.543
-57.394	30.482	-0.381	0.315	-0.461	0.185
-55.365	194.858	-13.101	-36.639	-13.171	-35.882
-53.336	700.000	97.542	903.846	95.364	887.482
-51.307	84.464	2349.870	3464.566	2351.060	3465.243
-49.278	81.042	1876.255	2137.173	1880.720	2149.133
-47.248	85.614	1760.740	2246.663	1759.264	2240.902
-45.219	65.502	1769.601	1966.154	1761.021	1959.536
-43.190	66.296	1735.114	1891.072	1725.723	1883.972
-41.161	61.323	1730.701	1883.974	1722.295	1878.700
-39.132	74.942	1728.749	1881.586	1721.630	1876.705
-37.102	80.104	1724.170	1876.006	1718.439	1873.235
-35.073	45.602	1721.715	1874.540	1715.829	1871.323
-33.044	36.774	1719.235	1870.542	1712.429	1865.380
-31.015	57.059	1716.569	1868.051	1707.500	1861.264
-28.986	62.535	1714.468	1864.447	1707.313	1858.847
-26.956	64.081	1711.645	1860.922	1705.600	1857.779
-24.927	76.291	1708.482	1856.000	1703.984	1855.116
-22.898	69.471	1705.598	1854.045	1701.159	1851.769
-20.869	106.156	1704.838	1852.727	1697.733	1846.488
-18.840	-89.495	1702.074	1849.024	1694.426	1844.100
-16.810	-32.595	1699.588	1845.498	1694.129	1842.159
-14.781	40.089	1697.341	1843.556	1691.403	1839.634
-12.752	-29.322	1695.634	1841.343	1689.952	1837.237
-10.723	46.654	1692.170	1838.308	1686.701	1833.771
-8.694	34.400	1690.659	1835.634	1685.518	1832.668
-6.665	32.325	1688.346	1833.978	1682.295	1830.608
-4.635	38.450	1685.445	1829.449	1682.345	1830.208
-2.606	38.468	1684.283	1828.109	1680.548	1828.199
-0.577	38.374	1681.883	1823.730	1678.561	1826.517
1.452	37.212	1645.759	1762.996	1665.514	1799.757
3.481	33.737	1374.767	1418.621	1417.799	1462.233
5.511	34.059	1252.694	1297.177	1111.682	1146.589
7.540	34.029	1234.216	1276.793	1082.952	1121.023
9.569	33.827	1217.218	1256.477	1057.188	1090.611
11.598	33.786	1212.443	1251.264	1050.745	1084.371
13.627	33.684	1210.100	1248.598	1049.574	1083.270
15.657	33.790	1211.900	1250.882	1051.170	1085.114
17.686	33.795	1209.148	1247.047	1048.409	1081.076
19.715	33.819	1207.298	1245.442	1047.497	1080.865
21.744	33.776	1204.988	1242.020	1046.848	1079.406
23.773	33.805	1199.093	1236.455	1043.591	1076.017
25.802	33.808	1197.258	1234.256	1040.791	1073.079
27.832	33.736	1193.679	1229.125	1038.180	1069.264
29.861	33.288	1187.143	1216.572	1034.609	1046.311
31.890	25.405	1166.077	1094.590	1008.003	920.971
33.919	22.321	1146.350	1039.333	996.392	894.163
35.948	22.151	1142.776	1030.822	990.067	882.931
37.978	20.858	1136.820	1019.526	991.748	883.945
40.007	18.932	1128.767	1011.189	989.142	878.984
42.036	19.676	1129.853	1013.708	986.615	877.846
44.065	18.253	1130.268	1013.243	987.636	878.876
46.094	17.730	1127.181	1011.963	985.957	878.114
48.124	17.727	1127.612	1011.938	984.828	876.690
50.153	17.559	1124.896	1007.613	984.629	876.887
52.182	17.555	1121.147	1004.032	983.078	874.488
54.211	17.643	1118.530	1002.214	981.984	880.061
56.240	18.232	1119.584	1010.618	1001.033	986.493
58.270	26.284	1139.086	1129.610	1011.150	1037.969
60.299	29.481	1147.563	1179.668	1011.729	1051.706
62.328	30.538	1151.170	1197.322	1013.739	1061.173
64.357	31.138	1153.462	1207.932	1014.984	1065.950
66.386	31.108	1156.401	1215.466	1012.552	1065.062
68.415	30.766	1156.561	1216.988	1010.882	1062.927
70.445	25.736	1155.247	1215.764	1006.501	1056.503
72.474	20.683	1150.133	1206.996	1008.325	1057.954
74.503	19.636	1148.698	1205.604	1004.809	1053.253
76.532	19.522	1147.708	1202.709	1004.499	1049.921
78.561	19.111	1142.820	1192.850	1001.494	1045.619
80.591	19.293	1140.398	1191.340	1001.811	1047.622
82.620	19.365	1142.728	1194.905	1001.626	1048.027
84.649	19.549	1138.154	1191.950	1000.225	1045.890
86.678	19.489	1138.766	1190.963	999.545	1043.328
88.707	19.250	1138.027	1187.020	997.639	1038.739
90.737	19.225	1135.666	1183.235	991.189	1028.906
92.766	19.363	1130.205	1173.223	989.427	1026.275
94.795	19.742	1129.088	1170.622	991.745	1028.563
96.824	25.328	1126.581	1168.369	991.581	1028.379
98.853	30.373	1128.302	1171.817	990.961	1030.010
100.882	32.107	1127.386	1172.041	990.707	1032.094
102.912	32.810	1125.469	1173.710	986.981	1029.989
104.941	33.250	1123.177	1172.350	984.171	1028.072
106.970	33.583	1123.564	1173.487	984.771	1030.638
108.999	33.814	1121.804	1172.324	986.231	1026.856
111.028	33.182	1120.823	1166.266	984.234	1024.159
113.058	33.139	1121.471	1167.666	981.614	1023.835
115.087	33.352	1120.563	1169.477	981.320	1024.356
117.116	33.098	1118.861	1167.908	980.309	1023.408
119.145	32.989	1116.096	1165.216	976.366	1019.322
121.174	33.209	1112.718	1163.041	974.616	1016.868
123.204	33.283	1112.665	1162.223	976.919	1018.075
125.233	33.168	1111.495	1160.143	974.251	1016.948
127.262	33.205	1115.183	1165.607	971.270	1015.242
129.291	33.100	1111.359	1161.365	973.488	1016.051
131.320	32.770	1110.125	1159.075	968.633	1010.105
133.350	32.590	1109.735	1157.389	967.092	1009.495
135.379	32.586	1104.497	1152.445	969.186	1007.692
137.408	32.389	1101.896	1145.583	964.590	1002.218
139.437	32.451	1098.491	1140.309	964.566	1003.022
141.466	32.775	1099.994	1143.289	964.884	1000.705
143.495	32.760	1099.947	1140.477	959.527	993.054
145.525	32.702	1098.681	1136.809	958.987	994.005
147.554	32.898	1094.994	1134.206	958.995	994.291
149.583	32.679	1094.377	1133.676	955.339	991.848
151.612	32.683	1091.235	1132.020	953.663	989.738
153.641	32.876	1090.442	1130.994	954.078	988.396
155.671	32.961	1090.972	1130.369	950.740	981.689
157.700	32.750	1088.422	1124.686	949.647	981.283
159.729	32.850	1087.537	1124.314	952.719	985.820
161.758	33.090	1086.242	1125.265	949.993	981.946
163.787	32.953	1085.682	1124.527	946.411	976.273
165.817	32.947	1085.759	1122.918	944.114	975.492
167.846	33.120	1083.390	1121.305	942.565	977.258
169.875	33.166	1083.504	1122.729	942.851	978.687
171.904	33.265	1080.044	1120.674	943.329	978.359
173.933	33.235	1080.233	1120.944	944.374	977.630
175.963	32.942	1079.245	1117.970	939.025	971.579
177.992	32.701	1078.308	1116.408	937.661	969.526
180.021	32.654	1075.713	1113.041	937.873	969.995
182.050	32.638	1070.077	1106.974	938.520	972.642
184.079	32.702	1069.932	1109.452	934.803	967.120
186.108	32.614	1067.686	1105.362	931.726	965.105
188.138	32.853	1065.817	1104.406	931.846	967.553
190.167	33.044	1068.589	1108.844	931.921	966.982
192.196	33.117	1067.377	1108.434	932.000	966.084
194.225	33.012	1065.527	1106.435	929.878	967.161
196.254	33.172	1066.554	1110.577	929.296	966.188
198.284	33.153	1065.858	1109.483	928.215	963.617
200.313	33.099	1064.367	1106.382	927.484	962.156
202.342	33.051	1062.897	1102.522	924.405	956.323
204.371	32.885	1057.845	1095.612	920.909	955.397
206.400	33.043	1057.490	1096.748	920.973	953.811
208.430	33.080	1059.843	1097.439	920.616	952.660
210.459	33.122	1058.855	1095.429	919.418	951.032
212.488	33.189	1054.777	1092.044	916.805	947.304
214.517	33.030	1052.496	1088.342	916.907	946.519
216.546	32.978	1049.523	1084.804	916.390	944.881
218.575	32.753	1048.140	1081.134	917.077	945.747
220.605	32.852	1049.868	1083.642	914.448	943.892
222.634	33.020	1050.767	1084.242	913.873	944.660
224.663	33.212	1045.569	1080.900	913.223	943.739
226.692	33.197	1043.721	1079.355	913.406	942.440
228.721	33.146	1043.766	1077.280	909.899	937.517
230.751	33.246	1042.198	1075.705	906.613	938.134
232.780	33.522	1043.363	1079.605	908.033	937.679
234.809	33.555	1040.928	1074.982	904.659	933.492
236.838	33.649	1039.035	1073.136	904.725	933.971
238.867	33.629	1037.519	1071.939	903.884	934.487
240.897	33.618	1039.241	1074.845	903.561	929.949
242.926	33.142	1036.560	1068.172	900.033	923.821
244.955	32.902	1031.894	1060.756	898.941	925.038
246.984	32.980	1033.136	1062.331	899.229	924.943
249.013	32.981	1027.404	1056.745	897.595	925.003
251.043	33.237	1030.107	1062.305	895.016	920.875
253.072	33.066	1029.231	1059.459	894.536	922.581
255.101	33.208	1026.972	1059.625	895.074	922.745
257.130	32.950	1027.624	1058.643	893.653	920.925
259.159	33.037	1026.501	1058.568	891.118	916.043
261.188	32.887	1025.712	1054.566	893.842	919.495
263.218	32.993	1023.094	1051.580	893.900	921.644
265.247	33.443	1021.697	1053.947	890.112	916.936
267.276	33.259	1021.428	1052.713	888.244	916.570
269.305	33.328	1018.502	1051.038	888.039	916.315
271.334	33.568	1018.003	1050.705	887.059	914.424
273.364	33.418	1017.788	1049.126	887.253	911.272
275.393	33.080	1014.038	1041.911	884.384	904.731
277.422	32.895	1010.376	1035.520	882.528	907.233
279.451	33.308	1012.782	1041.594	882.397	907.302
281.480	33.343	1010.135	1040.133	883.222	910.614
283.510	33.236	1010.413	1042.800	883.408	908.620
285.539	33.027	1007.367	1037.025	879.930	904.334
287.568	32.988	1005.619	1034.077	876.206	902.712
289.597	33.467	1007.457	1038.504	876.861	903.454
291.626	33.504	1005.597	1037.007	878.892	904.792
293.655	33.428	1004.289	1033.769	876.532	902.632
295.685	33.530	1004.043	1034.601	870.299	895.256
297.714	33.473	1000.892	1030.451	871.091	895.751
299.743	33.253	1000.520	1028.468	873.693	896.361
301.772	33.067	999.234	1026.046	868.458	890.441
303.801	33.270	996.395	1022.755	866.391	888.783
305.831	33.478	996.952	1023.819	867.287	888.982
307.860	33.403	996.242	1021.693	865.190	886.688
309.889	33.447	995.622	1021.216	865.239	887.562
311.918	33.450	993.012	1018.881	863.958	886.190
313.947	33.321	989.934	1016.259	863.889	886.732
315.977	33.081	987.709	1014.917	863.325	885.869
318.006	33.231	988.490	1014.492	861.985	884.674
320.035	33.490	987.231	1013.230	860.461	882.142
322.064	33.658	986.739	1012.755	859.084	879.331
324.093	33.361	987.759	1010.885	860.630	880.837
326.123	33.185	984.895	1008.099	857.720	877.970
328.152	33.400	982.749	1006.793	855.083	874.288
330.181	33.470	985.352	1008.546	853.792	874.570
332.210	33.442	983.243	1006.988	854.175	874.763
334.239	33.529	979.929	1003.343	854.114	873.431
336.268	33.601	978.794	1002.398	850.712	869.809
338.298	33.307	977.708	999.483	849.139	870.208
340.327	33.394	976.812	1000.717	849.017	871.610
342.356	33.579	974.960	1001.558	851.559	872.817
344.385	33.549	972.291	998.004	848.530	868.491
346.414	33.374	971.894	995.381	846.572	865.568
348.444	33.220	972.303	994.326	846.486	866.214
350.473	33.423	970.883	994.406	844.541	865.676
352.502	33.616	970.042	994.850	843.302	864.696
354.531	33.699	969.166	994.352	843.723	862.857
356.560	33.511	965.059	987.598	842.645	861.087
358.590	33.308	961.986	982.796	839.293	856.528
360.619	33.243	960.384	980.302	837.373	853.321
362.648	32.982	961.941	980.065	837.136	852.824
364.677	32.879	963.135	981.071	836.476	852.523
366.706	33.014	962.911	981.122	835.109	851.200
368.736	33.071	959.407	977.497	835.501	852.155
370.765	33.246	957.115	976.101	836.294	853.292
372.794	33.267	958.235	977.582	833.407	850.434
374.823	33.291	956.267	975.615	832.073	848.530
376.852	33.121	954.171	972.447	830.727	846.953
378.881	33.371	954.056	973.756	829.117	846.203
380.911	33.617	953.144	972.556	829.325	844.348
382.940	33.547	951.086	969.415	825.716	840.670
384.969	33.393	948.958	966.540	825.088	838.551
386.998	33.213	947.276	963.840	825.522	839.261
389.027	33.264	947.359	963.779	823.978	837.195
391.057	33.529	947.243	964.213	823.634	836.533
393.086	33.555	945.513	961.910	822.076	836.749
395.115	33.502	946.542	963.725	823.505	838.783
397.144	33.346	944.448	961.742	823.357	838.263
399.173	33.279	941.936	959.425	819.774	833.800
401.203	33.128	941.015	958.060	818.065	831.912
403.232	33.066	936.617	952.765	818.423	832.321
405.261	33.188	935.813	952.597	815.517	827.631
407.290	33.137	936.098	951.985	814.077	827.228
409.319	33.076	934.723	949.823	813.595	826.338
411.348	33.199	932.000	947.635	814.223	826.685
413.378	33.277	932.140	947.712	810.843	822.091
415.407	33.163	929.456	943.814	811.731	823.933
417.436	33.101	930.357	944.276	810.526	823.243
419.465	33.290	928.818	943.765	809.020	822.716
421.494	33.398	926.949	943.385	810.628	825.043
423.524	33.366	926.960	943.710	807.185	818.641
425.553	33.184	924.985	940.176	806.509	818.958
427.582	33.334	921.862	937.929	807.093	819.133
429.611	33.315	922.042	937.604	805.811	819.417
431.640	33.336	922.279	937.693	804.500	819.225
433.670	33.540	920.035	936.546	803.052	817.086
435.699	33.629	918.669	935.136	802.254	815.089
437.728	33.479	918.093	933.007	800.816	813.199
439.757	33.531	916.406	931.475	798.551	808.598
441.786	33.212	914.230	926.041	797.581	808.474
443.816	33.298	911.171	923.884	797.341	807.664
445.845	33.330	911.250	923.886	794.363	804.245
447.874	33.333	908.539	921.211	793.719	804.654
449.903	33.277	908.285	920.296	794.773	804.387
451.932	33.298	909.157	920.374	794.231	803.016
453.961	33.184	908.143	918.268	793.142	801.869
455.991	33.121	906.875	917.305	791.908	800.251
458.020	33.037	905.497	914.377	791.080	799.134
460.049	33.193	905.923	914.196	790.534	798.652
462.078	33.351	905.796	914.423	789.344	796.581
464.107	33.269	902.966	911.070	787.782	793.931
466.137	33.131	900.536	907.561	784.712	790.776
468.166	33.081	899.585	905.751	784.208	790.214
470.195	33.007	899.686	905.494	783.003	788.895
472.224	33.098	897.803	903.461	783.304	788.907
474.253	33.320	895.839	902.394	783.011	789.733
476.283	33.230	895.863	902.576	782.070	789.157
478.312	33.197	893.090	900.373	779.423	785.924
480.341	33.101	890.070	897.457	777.691	785.792
482.370	33.236	889.374	897.986	778.396	788.120
484.399	33.500	892.426	902.682	775.977	783.826
486.428	33.488	890.264	900.055	773.931	779.337
488.458	33.133	887.153	893.875	775.009	780.856
490.487	33.044	884.459	891.009	773.802	781.190
492.516	33.247	885.012	893.862	773.029	779.857
494.545	33.157	886.444	894.392	772.909	779.343
496.574	32.988	885.142	891.839	771.246	776.738
498.604	32.956	884.416	891.251	771.467	776.984
500.633	33.025	881.842	888.885	770.596	776.837
502.662	33.106	879.615	887.042	771.151	778.948
504.691	33.248	879.880	889.088	769.981	776.569
506.720	33.200	880.005	889.224	769.946	777.540
508.750	33.349	877.616	888.165	767.685	775.638
510.779	33.358	876.565	886.525	765.515	772.256
512.808	33.368	875.755	885.489	765.632	772.080
514.837	33.332	876.927	885.711	760.093	764.694
516.866	33.332	874.165	881.666	759.629	764.153
518.896	33.053	872.693	877.627	760.401	765.306
520.925	33.203	872.206	877.672	758.111	761.194
522.954	33.311	871.215	875.656	757.843	761.666
524.983	33.262	868.810	872.452	758.228	763.047
527.012	33.310	867.145	872.829	757.636	761.178
529.041	33.097	866.349	871.025	758.886	764.090
531.071	33.342	864.415	870.183	756.516	760.920
533.100	33.436	863.234	868.811	754.995	757.161
535.129	33.152	862.940	866.673	752.995	754.950
537.158	33.037	863.878	866.259	754.341	756.116
539.187	33.075	862.113	864.611	752.845	754.953
541.217	33.108	859.529	861.240	748.631	750.402
543.246	33.230	860.166	862.253	746.964	748.354
545.275	33.262	860.330	861.514	749.176	749.524
547.304	33.203	855.885	855.105	748.473	748.808
549.333	33.351	854.117	854.046	744.431	744.554
551.363	33.294	851.396	851.729	746.056	747.549
553.392	33.369	855.473	856.387	743.365	744.075
555.421	33.305	855.295	856.431	739.725	739.724
557.450	32.867	852.808	852.207	738.861	737.581
559.479	32.862	850.629	849.632	736.712	735.170
561.509	32.862	849.315	848.033	736.878	736.003
563.538	32.679	847.723	846.079	734.772	734.663
565.567	32.980	844.101	843.657	730.396	729.503
567.596	32.977	843.923	842.827	730.310	729.964
569.625	33.121	843.875	843.749	731.251	730.658
571.654	33.033	844.264	842.624	729.294	729.957
573.684	33.131	843.054	843.687	729.875	729.934
575.713	32.939	842.018	842.125	728.580	728.780
577.742	32.998	839.781	840.031	728.226	729.166
579.771	33.193	840.557	842.761	726.234	726.162
581.800	33.160	840.912	842.934	723.829	725.172
583.830	33.268	840.156	842.904	723.841	725.995
585.859	33.319	839.499	843.658	723.077	725.371
587.888	33.187	838.913	841.609	722.496	723.791
589.917	33.287	838.104	841.606	721.861	721.434
591.946	33.273	837.089	839.858	720.267	720.187
593.976	33.332	834.840	837.197	717.534	717.427
596.005	33.330	832.366	834.917	717.098	717.661
598.034	33.179	830.841	833.596	715.239	716.212
600.063	33.144	828.787	831.485	714.976	715.769
602.092	33.065	825.095	826.335	713.824	713.703
604.121	33.051	824.997	824.897	710.708	710.886
606.151	32.989	826.637	825.780	707.505	707.779
608.180	33.140	823.798	823.287	707.211	706.904
610.209	33.066	823.092	821.809	705.890	705.788
612.238	33.179	823.344	822.116	703.542	703.633
614.267	33.193	820.724	818.957	702.677	703.209
616.297	33.182	819.384	817.649	703.191	703.000
618.326	33.346	819.209	817.656	701.839	701.494
620.355	33.418	817.139	815.109	702.505	701.943
622.384	33.529	817.102	815.442	701.038	700.493
624.413	33.592	815.392	813.314	700.265	699.285
626.443	33.564	810.450	807.928	698.814	698.013
628.472	33.739	811.162	809.300	696.198	695.431
630.501	33.676	811.527	809.587	693.768	693.102
632.530	33.555	810.840	808.312	696.541	695.619
634.559	33.627	809.628	806.941	695.414	694.424
636.589	33.655	808.733	805.923	693.998	692.608
638.618	33.695	806.400	803.742	694.192	692.871
640.647	33.566	805.475	802.337	691.817	690.521
642.676	33.338	803.065	799.819	691.547	689.953
644.705	33.297	801.799	798.315	692.195	690.605
646.734	33.343	801.968	798.199	689.593	688.018
648.764	33.364	800.294	796.526	688.870	687.294
650.793	33.341	798.741	794.787	689.600	687.446
652.822	33.400	799.750	796.305	686.330	683.580
654.851	33.273	800.534	795.745	683.540	682.679
656.880	33.362	799.345	795.252	683.981	683.968
658.910	33.284	796.335	791.651	682.354	682.110
660.939	33.207	794.447	788.806	680.939	680.660
662.968	33.273	791.968	786.722	681.321	680.037
664.997	33.217	792.761	786.807	681.320	680.207
667.026	33.121	792.708	785.928	680.219	680.091
669.056	33.329	791.588	786.651	679.560	678.353
671.085	33.345	790.122	785.483	678.567	677.493
673.114	33.395	788.935	784.438	677.278	675.248
675.143	33.295	785.906	780.448	676.585	674.119
677.172	33.043	786.593	778.828	674.444	671.307
679.202	33.223	785.632	779.208	672.133	667.460
681.231	33.056	784.637	776.185	672.062	667.647
683.260	33.046	783.826	775.428	671.213	666.524
685.289	33.082	781.453	773.669	670.467	664.562
687.318	32.887	781.365	772.158	668.704	663.169
689.347	32.898	777.748	768.288	666.997	660.270
691.377	32.787	775.354	764.895	665.913	659.397
693.406	32.848	777.457	767.744	666.832	659.231
695.435	32.734	776.368	765.105	666.567	658.275
697.464	32.676	772.634	760.529	666.059	657.466
699.493	32.722	772.072	760.622	665.985	658.918
701.523	32.656	769.827	758.488	666.937	660.390
703.552	32.849	770.524	760.955	664.772	657.508
705.581	32.750	769.389	759.269	660.522	652.587
707.610	32.722	765.458	753.970	660.499	652.729
709.639	32.882	766.794	755.350	659.937	651.460
711.669	32.825	763.572	751.525	662.017	654.636
713.698	32.758	758.772	746.897	660.136	652.520
715.727	32.728	758.185	747.354	658.473	650.824
717.756	32.802	760.219	749.634	658.761	651.556
719.785	32.677	759.165	747.822	658.429	650.544
721.814	32.642	756.681	745.408	656.114	648.917
723.844	32.709	756.534	745.410	654.531	649.043
725.873	32.848	755.877	746.637	654.161	648.105
727.902	32.776	756.626	746.969	654.177	647.660
729.931	32.607	754.015	743.353	652.601	646.302
731.960	32.744	752.688	742.734	652.712	644.200
733.990	32.488	750.351	738.695	652.330	645.180
736.019	32.317	749.223	736.897	651.789	644.792
738.048	32.485	749.206	738.231	650.591	642.438
740.077	32.517	745.913	734.258	650.757	644.639
742.106	32.715	744.950	734.032	650.547	645.510
744.136	33.016	747.818	738.525	648.513	642.932
746.165	32.804	746.264	736.047	647.300	642.830
748.194	33.033	746.560	738.412	646.492	641.725
750.223	32.940	746.457	737.489	647.200	641.401
752.252	32.878	744.961	734.778	645.026	638.133
754.282	32.966	744.631	734.603	643.054	635.841
756.311	32.784	742.332	730.549	643.275	634.927
758.340	32.674	741.413	728.916	643.292	634.979
760.369	32.735	739.092	727.086	642.595	633.594
762.398	32.701	738.717	726.253	642.152	634.214
764.427	32.925	737.274	725.018	639.610	631.179
766.457	33.108	736.549	724.612	637.730	627.926
768.486	32.720	735.554	721.492	637.619	628.258
770.515	32.774	732.136	718.140	638.722	630.824
772.544	33.080	732.533	721.271	638.529	630.947
774.573	33.017	733.012	722.014	634.714	625.567
776.603	32.974	730.294	717.972	634.045	623.814
778.632	32.811	730.447	716.627	634.011	624.297
780.661	32.789	731.193	717.230	634.467	623.734
782.690	32.833	730.220	715.394	632.894	621.615
784.719	32.787	728.813	712.987	632.269	620.919
786.749	32.900	726.894	711.128	631.606	619.702
788.778	32.897	725.682	709.858	630.102	618.030
790.807	32.686	724.924	708.241	629.326	617.552
792.836	32.869	724.828	709.043	629.381	618.062
794.865	32.782	725.097	709.335	630.022	618.527
796.894	32.767	724.449	709.463	628.390	616.394
798.924	32.725	723.083	708.007	626.807	615.113
800.953	32.752	721.998	706.549	626.515	615.249
802.982	32.889	721.172	706.305	625.311	613.981
805.011	32.905	720.893	705.693	624.735	613.526
807.040	32.870	719.580	705.007	622.374	611.725
809.070	32.758	717.019	702.316	621.231	611.008
811.099	32.988	715.751	701.376	620.967	610.733
813.128	33.247	715.733	701.532	619.586	608.628
815.157	33.018	714.793	699.440	620.266	608.871
817.186	32.805	713.743	698.228	620.276	609.753
819.216	32.973	713.914	699.716	620.043	609.882
821.245	32.979	713.599	699.551	618.643	609.779
823.274	33.083	712.347	699.923	618.642	609.036
825.303	32.965	712.094	698.871	618.363	607.598
827.332	32.886	711.786	697.831	616.165	605.933
829.362	32.728	711.246	696.042	614.860	604.278
831.391	32.696	708.154	692.720	614.732	604.249
833.420	32.744	707.783	692.028	614.498	604.497
835.449	33.118	708.398	694.654	613.047	602.595
837.478	32.974	705.319	690.380	612.837	600.769
839.507	32.798	705.634	689.206	611.742	598.779
841.537	32.791	704.161	687.419	609.414	597.210
843.566	32.705	702.220	684.765	609.049	597.234
845.595	32.889	703.189	686.571	607.309	594.678
847.624	32.884	700.699	683.094	607.353	594.562
849.653	32.926	699.548	682.607	606.173	593.588
851.683	32.815	699.261	681.515	604.366	591.457
853.712	33.011	699.677	682.935	603.389	590.517
855.741	32.823	697.712	680.006	603.882	591.141
857.770	33.118	697.258	680.569	603.007	589.909
859.799	33.228	699.039	682.319	603.117	590.206
861.829	33.381	696.966	680.616	602.706	589.262
863.858	33.295	694.528	676.924	600.660	586.570
865.887	33.094	693.865	675.324	600.432	586.040
867.916	32.890	693.018	674.207	598.655	584.265
869.945	32.863	691.836	672.980	597.140	582.194
871.975	32.697	690.213	670.677	596.629	581.875
874.004	33.001	689.360	670.602	596.662	582.198
876.033	33.042	689.894	671.157	596.257	582.474
878.062	33.139	687.979	670.748	595.721	581.149
880.091	32.858	688.224	669.473	593.765	579.325
882.120	32.859	686.862	668.829	594.015	579.772
884.150	32.957	686.671	668.892	593.537	578.786
886.179	32.929	687.266	668.833	591.536	576.272
888.208	32.874	684.717	665.654	591.537	576.230
890.237	32.865	682.931	664.376	592.001	576.497
892.266	32.810	682.790	663.079	590.827	575.019
894.296	32.813	681.239	661.230	589.272	573.047
896.325	32.792	679.674	659.486	586.510	571.162
898.354	32.925	679.964	660.231	585.687	570.737
900.383	33.099	680.781	661.885	585.925	572.000
902.412	33.132	679.306	660.934	587.113	574.284
904.442	33.124	678.347	661.090	586.410	573.521
906.471	33.064	676.952	659.527	585.701	571.295
908.500	33.003	676.731	658.521	584.757	569.610
910.529	32.879	674.993	655.983	583.164	568.578
912.558	33.105	675.299	657.124	582.133	568.135
914.587	33.188	675.664	657.745	582.121	568.592
916.617	33.311	672.216	654.120	581.995	566.641
918.646	33.165	670.847	651.793	581.100	564.491
920.675	32.962	670.482	650.080	580.361	564.520
922.704	33.024	671.276	650.950	579.372	563.240
924.733	33.091	669.533	649.659	580.002	564.218
926.763	33.027	667.624	647.555	579.620	563.151
928.792	32.796	666.715	645.417	576.997	560.495
930.821	32.888	667.497	646.981	577.028	559.461
932.850	32.830	667.474	646.770	577.052	559.837
934.879	32.695	665.039	643.399	575.105	558.843
936.909	33.047	664.564	644.678	574.386	557.811
938.938	33.084	664.077	643.592	573.181	557.163
940.967	33.170	663.672	643.207	571.416	555.137
942.996	33.428	661.935	641.971	571.141	554.632
945.025	33.430	660.452	640.223	571.508	554.608
947.055	33.201	659.838	638.871	571.603	554.121
949.084	32.970	658.425	636.591	570.706	553.417
951.113	32.977	657.994	635.886	570.016	552.703
953.142	33.141	655.674	633.949	568.114	550.350
955.171	33.290	655.735	634.053	568.400	550.976
957.200	33.146	657.961	635.720	567.149	550.284
959.230	33.059	654.165	632.814	566.180	550.380
961.259	33.074	652.576	631.721	566.673	550.927
963.288	33.338	655.015	635.214	565.531	548.540
965.317	33.216	654.999	633.990	565.034	548.995
967.346	33.161	652.229	631.724	564.582	547.920
969.376	33.186	650.098	629.649	561.912	543.716
971.405	32.958	651.207	629.019	561.690	544.802
973.434	33.106	651.910	630.692	561.546	545.314
975.463	33.288	650.710	630.046	560.183	543.007
977.492	33.234	648.235	626.504	560.305	542.182
979.522	33.092	646.650	623.908	557.710	536.712
981.551	32.680	646.135	620.511	558.446	539.547
983.580	32.934	646.379	622.723	558.605	541.046
985.609	33.234	644.927	623.446	557.334	540.100
987.638	33.102	644.218	622.271	556.713	539.339
989.667	33.172	642.181	620.867	556.973	539.379
991.697	33.088	642.319	620.045	555.616	537.549
993.726	33.128	643.458	621.503	554.973	534.852
995.755	32.785	641.666	617.277	555.101	535.382
997.784	32.901	638.288	613.679	554.099	535.172
999.813	33.344	638.254	616.055	553.174	533.947
1001.843	33.301	637.735	614.730	551.759	532.942
1003.872	33.235	635.821	612.393	551.746	531.885
1005.901	33.087	634.405	609.734	550.192	531.174
1007.930	33.344	634.898	611.806	548.138	527.197
1009.959	32.878	633.910	608.846	549.055	527.986
1011.989	32.767	632.510	606.842	547.613	525.544
1014.018	32.763	631.381	604.556	548.555	528.649
1016.047	32.990	632.274	607.678	548.402	529.360
1018.076	33.049	631.304	607.698	546.416	526.829
1020.105	32.628	630.164	605.971	545.959	526.024
1022.135	32.746	628.664	604.418	546.049	526.083
1024.164	33.144	629.267	605.349	545.419	526.409
1026.193	33.365	626.684	603.271	543.638	522.935
1028.222	33.047	627.263	601.563	543.151	522.437
1030.251	32.981	627.602	602.184	541.638	522.031
1032.280	33.103	626.455	601.792	541.330	521.072
1034.310	32.910	625.683	600.620	542.604	521.614
1036.339	32.628	624.675	598.496	540.963	519.126
1038.368	32.738	624.290	597.903	538.780	516.813
1040.397	32.791	622.226	595.692	538.419	517.153
1042.426	32.940	621.116	595.348	537.999	517.282
1044.456	32.689	619.975	593.578	538.084	517.487
1046.485	32.893	619.925	594.568	538.682	517.814
1048.514	32.784	618.728	593.249	537.886	517.374
1050.543	32.827	617.527	592.513	535.810	515.051
1052.572	32.788	615.745	591.553	534.640	513.719
1054.602	32.786	616.417	591.458	535.452	515.332
1056.631	33.276	616.746	592.566	534.745	515.321
1058.660	33.292	615.799	591.639	534.353	515.359
1060.689	33.337	615.077	591.665	533.230	514.238
1062.718	33.346	613.884	590.333	531.718	511.217
1064.748	33.179	613.689	588.083	531.516	510.799
1066.777	33.110	612.029	587.515	530.443	509.448
1068.806	32.950	610.562	585.206	528.166	506.185
1070.835	32.858	608.884	582.125	527.569	505.817
1072.864	32.948	609.101	582.536	526.936	505.581
1074.893	32.926	609.839	583.662	525.514	502.883
1076.923	32.484	607.975	579.692	527.259	504.155
1078.952	32.397	606.530	577.980	526.850	504.035
1080.981	32.489	606.045	577.644	526.371	503.568
1083.010	32.679	606.904	579.080	525.358	502.870
1085.039	32.858	605.249	578.026	524.145	501.916
1087.069	32.958	603.503	576.646	524.032	501.334
1089.098	32.962	601.537	574.382	523.138	499.270
1091.127	32.740	600.436	571.104	523.030	498.709
1093.156	32.430	600.485	570.099	521.993	498.281
1095.185	32.770	600.580	571.633	520.990	496.400
1097.215	32.792	600.760	571.200	519.793	494.803
1099.244	32.653	597.632	566.637	518.922	493.718
1101.273	32.683	596.503	565.356	519.009	494.228
1103.302	32.768	596.051	566.768	517.444	493.457
1105.331	32.814	594.213	565.434	516.719	492.802
1107.360	32.921	593.876	565.337	516.298	492.275
1109.390	32.644	593.969	564.591	515.917	491.067
1111.419	32.363	592.099	561.956	516.080	490.365
1113.448	32.225	591.499	560.037	515.589	490.978
1115.477	32.451	592.338	562.769	514.520	490.127
1117.506	32.417	590.633	561.365	512.969	488.159
1119.536	32.366	589.479	559.734	512.462	488.756
1121.565	32.595	590.058	561.369	512.658	489.824
1123.594	32.916	587.547	560.108	513.363	490.774
1125.623	33.017	587.000	559.574	512.401	489.832
1127.652	32.995	587.718	560.453	511.982	489.981
1129.682	32.724	584.987	557.770	512.267	490.018
1131.711	32.459	584.855	557.223	509.865	486.349
1133.740	32.448	584.129	555.915	509.082	486.606
1135.769	32.501	581.675	553.159	507.495	484.865
1137.798	32.552	581.402	553.589	507.736	484.681
1139.828	32.424	581.577	553.492	507.550	484.504
1141.857	32.572	580.468	552.131	507.622	483.885
1143.886	32.735	579.734	551.196	506.555	481.261
1145.915	32.467	580.036	549.448	505.031	479.998
1147.944	32.479	579.624	549.607	504.318	481.175
1149.973	32.702	577.505	549.251	503.553	479.947
1152.003	32.413	575.930	546.668	502.324	478.238
1154.032	32.533	575.901	546.760	502.130	476.988
1156.061	32.598	576.322	546.186	501.883	475.637
1158.090	32.280	575.319	543.263	500.759	473.557
1160.119	32.141	574.280	541.315	499.150	470.930
1162.149	32.287	573.013	539.344	498.208	470.396
1164.178	32.185	570.278	535.956	497.590	469.741
1166.207	32.415	569.732	536.604	498.410	472.138
1168.236	32.835	571.443	539.981	498.037	472.226
1170.265	32.886	571.473	540.624	497.451	472.090
1172.295	32.883	570.596	540.616	496.475	471.747
1174.324	32.948	570.261	540.478	496.677	471.318
1176.353	32.946	568.825	538.684	494.460	468.353
1178.382	32.714	567.351	535.850	494.084	468.137
1180.411	32.859	567.212	536.612	494.857	470.768
1182.441	33.008	566.297	536.947	493.751	469.771
1184.470	32.863	566.350	537.175	493.567	469.532
1186.499	32.780	564.333	534.901	494.068	471.997
1188.528	33.408	565.128	537.243	493.822	470.962
1190.557	33.288	564.928	536.300	492.828	468.832
1192.586	33.159	564.637	535.936	490.482	464.640
1194.616	32.583	563.155	531.991	488.694	461.498
1196.645	32.201	561.142	528.997	486.351	455.514
1198.674	31.152	560.024	523.064	480.374	430.473
1200.703	26.476	552.385	489.912	470.859	386.843
1202.732	19.138	542.354	441.547	466.508	381.243
1204.762	18.696	539.379	436.549	464.529	377.016
1206.791	18.301	537.359	431.823	464.333	376.374
1208.820	18.374	535.374	429.468	463.680	375.994
1210.849	18.541	534.213	428.548	462.386	374.803
1212.878	18.514	532.653	426.748	461.948	373.948
1214.908	18.488	530.468	424.962	459.744	372.552
1216.937	18.375	529.970	424.541	458.017	370.291
1218.966	18.557	528.766	424.361	459.059	371.585
1220.995	18.449	525.714	420.365	458.487	371.215
1223.024	18.559	525.340	419.994	457.158	369.672
1225.053	20.802	528.439	433.648	461.049	390.565
1227.083	29.773	537.706	488.387	465.404	426.317
1229.112	30.782	539.784	495.420	467.009	429.787
1231.141	31.231	540.280	498.848	466.722	431.870
1233.170	31.134	540.912	500.288	466.090	431.423
1235.199	30.650	541.224	500.871	466.806	432.051
1237.229	29.604	539.771	499.215	465.730	431.103
1239.258	26.669	539.692	498.937	465.539	430.715
1241.287	19.936	539.290	498.773	464.557	430.099
1243.316	17.040	537.263	496.247	463.053	428.433
1245.345	16.963	536.479	495.695	462.858	428.131
1247.375	17.019	536.361	495.914	462.667	427.993
1249.404	16.891	534.799	493.588	462.438	427.932
1251.433	15.823	557.592	508.215	462.828	427.338
1253.462	22.372	565.702	557.777	534.116	508.031
1255.491	14.822	418.330	377.112	414.071	386.893
1257.521	20.851	384.954	372.520	373.506	357.453
1259.550	20.823	371.500	358.936	364.492	354.064
1261.579	21.528	367.151	356.029	359.326	347.376
1263.608	22.771	366.002	354.856	358.035	346.561
1265.637	29.725	365.539	354.325	357.236	345.850
1267.666	33.337	364.978	353.589	356.273	345.005
1269.696	33.829	364.529	352.970	355.965	344.587
1271.725	33.887	363.917	352.485	355.332	343.796
1273.754	33.860	363.395	351.861	354.703	343.311
1275.783	33.964	362.620	351.321	354.711	343.115
1277.812	33.788	362.402	350.537	354.459	342.939
1279.842	33.852	362.253	350.428	353.899	342.208
1281.871	33.896	361.824	350.118	353.411	341.187
1283.900	33.880	361.256	349.548	353.011	341.214
1285.929	33.826	360.277	348.502	352.551	340.817
1287.958	34.045	359.592	347.841	352.345	340.757
1289.988	33.944	359.502	347.958	352.070	340.161
1292.017	33.927	359.320	348.082	351.717	339.862
1294.046	37.090	359.217	347.543	350.970	339.046
1296.075	38.685	358.727	347.182	350.648	338.770
1298.104	38.868	358.199	346.729	350.287	338.470
1300.133	38.816	357.491	345.871	349.908	337.994
1302.163	38.869	357.202	345.721	349.248	337.363
1304.192	24.487	797.106	659.002	766.026	637.221
1306.221	52.086	961.880	1064.179	934.030	1045.173
1308.250	-46.379	221.438	62.707	215.567	61.812
1310.279	47.145	88.231	92.978	85.420	88.932
1312.309	-33.607	21.685	7.804	20.972	7.756
1314.338	-100.267	1.009	0.070	0.921	0.184
1316.367	33.786	-0.285	-0.261	-0.114	-0.249
1318.396	54.476	-0.378	-0.427	-0.268	-0.334
1320.425	71.012	-0.323	-0.424	-0.278	-0.397
1322.455	78.796	-0.322	-0.451	-0.318	-0.400
1324.484	34.587	-0.487	-0.450	-0.419	-0.503
1326.513	52.018	-0.450	-0.496	-0.372	-0.476
1328.542	66.446	-0.467	-0.589	-0.574	-0.550
1330.571	61.331	-0.417	-0.502	-0.481	-0.437
1332.601	73.724	-0.456	-0.612	-0.411	-0.582
1334.630	95.838	-0.401	-0.642	-0.497	-0.707
1336.659	113.527	-0.422	-0.767	-0.486	-0.577
1338.688	73.405	-0.412	-0.551	-0.417	-0.525
1340.717	118.287	-0.393	-0.726	-0.364	-0.457
1342.746	52.829	-0.553	-0.545	-0.389	-0.449
1344.776	58.069	-0.554	-0.599	-0.435	-0.658
1346.805	111.781	-0.527	-0.740	-0.454	-0.456
1348.834	216.795	-0.355	-0.555	-0.422	-0.550
1350.863	700.000	-0.517	-0.436	-0.497	-0.525
1352.892	184.794	-0.454	-0.549	-0.447	-0.583
1354.922	88.832	-0.518	-0.688	-0.535	-0.462
1356.951	700.000	-0.547	-0.589	-0.468	-0.538
1358.980	700.000	-0.571	-0.618	-0.462	-0.491
1361.009	104.167	-0.605	-0.484	-0.414	-0.523
1363.038	79.402	-0.572	-0.608	-0.539	-0.465
1365.068	559.291	-0.563	-0.650	-0.438	-0.641
1367.097	-19.283	-0.504	-0.676	-0.539	-0.379
1369.126	37.837	-0.463	-0.524	-0.385	-0.464
1371.155	-200.000	-0.480	-0.642	-0.426	-0.583
1373.184	197.153	-0.565	-0.556	-0.322	-0.546
1375.214	-45.142	-0.495	-0.345	-0.398	-0.579
1377.243	135.620	-0.517	-0.591	-0.409	-0.570
1379.272	13.295	-0.474	-0.512	-0.472	-0.440
1381.301	95.272	-0.577	-0.782	-0.444	-0.577
1383.330	166.769	-0.419	-0.588	-0.358	-0.550
1385.359	-22.279	-0.541	-0.558	-0.413	-0.507
1387.389	-23.109	-0.516	-0.548	-0.505	-0.519
1389.418	6.730	-0.440	-0.591	-0.361	-0.524
1391.447	-9.632	-0.508	-0.517	-0.393	-0.517
1393.476	-200.000	-0.540	-0.681	-0.370	-0.575
1395.505	700.000	-0.433	-0.523	-0.401	-0.555
1397.535	8.456	-0.529	-0.610	-0.321	-0.551
