DTS Sentinel unit serial number:	SN307009Multiplexer serial number:	multiplexer serial numberHardware model number:	HL4Software version number:	Halo DTS v1.0data status	okinstallation	NYAN30AUG2019differential loss correction	combinedforward channel	channel 1reverse channel	channel 1 reversedate	2003/01/11time	03:14:10forward acquisition time	60.05reverse acquisition time	60.05gamma	510.3900k internal	0.1898k external	0.1898temperature offset calibration	1.0000default loss term (dB/km)	0.3938temperature slope calibration	NaNmultiplexer offset coefficient	1.0000multiplexer slope coefficient	1.0000fibre end	1298.10T internal ref (°C)	34.25T ext. ref 1 (°C)	NaNT ext. ref 2 (°C)	NaNlength (m)	temperature (°C)	forward Stokes	forward anti-Stokes	reverse Stokes	reverse anti-Stokes-584.984	90.164	-0.113	-0.136	-0.036	0.062
-582.954	-2.521	0.025	0.012	-0.062	-0.032
-580.925	34.242	-0.021	-0.015	0.078	-0.100
-578.896	-84.874	0.042	0.004	0.042	-0.018
-576.867	-200.000	-0.001	0.053	0.123	0.043
-574.838	53.447	0.060	-0.052	0.095	0.126
-572.808	50.692	0.064	-0.055	-0.030	-0.038
-570.779	84.048	-0.084	0.097	-0.037	-0.117
-568.750	700.000	0.004	0.070	0.012	-0.031
-566.721	37.554	0.097	0.073	0.026	-0.074
-564.692	303.628	-0.060	-0.206	0.024	0.018
-562.662	-123.451	0.093	-0.002	0.095	-0.024
-560.633	102.097	-0.083	-0.109	0.013	0.055
-558.604	525.794	-0.023	-0.128	-0.159	-0.038
-556.575	567.051	-0.028	0.169	-0.102	0.199
-554.546	110.121	-0.021	0.029	-0.040	-0.035
-552.517	-200.000	0.001	-0.026	-0.163	-0.043
-550.487	220.010	-0.022	-0.056	0.062	-0.077
-548.458	-26.598	0.076	0.024	-0.122	-0.160
-546.429	33.287	-0.100	0.072	0.031	0.026
-544.400	327.174	-0.025	-0.093	0.036	0.120
-542.371	124.590	-0.087	-0.133	0.026	-0.045
-540.341	137.771	-0.036	0.061	0.013	-0.126
-538.312	7.310	0.081	-0.043	-0.019	0.044
-536.283	63.175	-0.081	0.078	0.055	-0.084
-534.254	81.680	-0.089	-0.101	-0.114	0.102
-532.225	326.068	-0.030	-0.111	-0.003	0.129
-530.195	107.935	-0.062	-0.085	0.050	0.002
-528.166	293.512	0.027	0.089	0.026	0.046
-526.137	265.048	0.020	-0.061	-0.077	-0.095
-524.108	-17.548	0.229	-0.085	0.012	0.009
-522.079	337.302	-0.008	0.029	-0.099	0.025
-520.049	-43.877	-0.052	-0.012	-0.112	-0.005
-518.020	-90.124	0.017	-0.001	0.051	-0.074
-515.991	-200.000	0.000	0.057	0.009	-0.211
-513.962	700.000	-0.006	0.053	-0.064	-0.025
-511.933	44.306	0.075	0.061	-0.171	0.040
-509.904	276.226	0.021	0.065	0.124	-0.032
-507.874	47.965	0.105	-0.088	0.126	-0.067
-505.845	-14.503	-0.142	0.055	-0.090	-0.093
-503.816	237.301	-0.079	0.216	0.049	0.048
-501.787	200.496	0.049	-0.114	-0.152	0.011
-499.758	-0.246	-0.015	0.007	0.060	-0.136
-497.728	700.000	-0.006	0.080	-0.007	0.057
-495.699	360.117	-0.025	-0.098	0.050	0.053
-493.670	-39.361	-0.106	0.027	-0.072	0.066
-491.641	68.354	-0.081	-0.082	0.017	0.006
-489.612	-2.708	-0.027	0.012	0.083	0.049
-487.582	-1.912	-0.172	0.080	-0.033	-0.052
-485.553	13.329	0.014	0.008	-0.027	0.098
-483.524	-10.848	-0.158	-0.065	0.025	0.072
-481.495	380.389	0.026	-0.111	0.017	-0.059
-479.466	161.959	0.016	-0.030	-0.027	-0.098
-477.437	441.846	0.025	0.122	-0.092	0.089
-475.407	-4.424	0.083	-0.038	0.004	-0.077
-473.378	11.128	-0.122	0.067	0.003	0.024
-471.349	81.101	-0.017	0.019	0.081	-0.078
-469.320	-16.300	-0.027	0.010	0.009	-0.087
-467.291	-73.912	-0.107	0.013	0.075	0.005
-465.261	-45.846	-0.096	-0.022	0.011	-0.158
-463.232	124.193	-0.048	-0.073	-0.093	-0.088
-461.203	-120.281	0.164	0.004	-0.144	0.105
-459.174	514.412	0.010	-0.057	0.008	-0.077
-457.145	132.102	-0.119	0.193	0.090	-0.082
-455.115	1.189	-0.120	-0.058	-0.027	-0.019
-453.086	156.987	0.050	-0.093	0.026	-0.041
-451.057	-131.380	0.050	0.001	-0.083	0.072
-449.028	103.091	0.077	-0.102	0.064	0.137
-446.999	-43.075	0.059	-0.014	-0.124	-0.037
-444.969	512.054	-0.007	-0.037	-0.110	0.011
-442.940	15.436	0.068	0.040	0.034	-0.016
-440.911	700.000	0.008	-0.129	0.056	-0.103
-438.882	-200.000	-0.003	0.091	-0.020	0.079
-436.853	51.946	0.087	-0.076	0.080	-0.156
-434.824	700.000	0.006	-0.116	0.114	-0.105
-432.794	405.586	-0.001	-0.003	-0.154	-0.019
-430.765	22.192	-0.099	0.063	0.014	0.041
-428.736	413.701	0.025	-0.113	-0.001	0.035
-426.707	36.100	0.067	0.050	-0.133	0.058
-424.678	35.451	-0.104	0.076	0.029	0.115
-422.648	495.273	0.008	0.042	0.022	-0.003
-420.619	267.468	-0.030	-0.091	-0.007	0.065
-418.590	112.473	0.076	-0.108	0.026	0.070
-416.561	48.393	0.053	0.045	0.032	0.028
-414.532	30.056	-0.057	0.040	-0.021	-0.030
-412.502	229.117	0.039	0.103	-0.075	-0.005
-410.473	145.249	-0.070	0.122	0.027	0.113
-408.444	335.914	0.023	0.086	0.055	0.019
-406.415	142.508	-0.056	-0.097	0.028	-0.017
-404.386	300.978	-0.032	0.110	0.047	-0.076
-402.357	3.699	-0.053	-0.027	-0.014	0.013
-400.327	592.111	0.019	-0.118	0.049	0.150
-398.298	4.805	0.055	-0.028	0.062	-0.060
-396.269	46.779	-0.085	-0.070	0.011	0.138
-394.240	208.763	0.048	0.117	-0.020	0.025
-392.211	420.660	0.008	-0.039	-0.048	0.049
-390.181	129.894	0.039	-0.062	-0.104	0.075
-388.152	700.000	0.003	-0.058	-0.113	-0.052
-386.123	700.000	0.017	0.125	0.058	-0.170
-384.094	588.236	0.033	0.204	-0.009	-0.063
-382.065	98.187	0.080	-0.102	0.021	0.030
-380.035	700.000	-0.006	0.056	-0.053	-0.153
-378.006	243.933	0.009	-0.026	0.034	-0.040
-375.977	700.000	-0.015	-0.242	0.032	0.021
-373.948	371.549	0.024	0.100	-0.043	-0.017
-371.919	24.604	-0.098	-0.064	-0.029	0.053
-369.889	-22.047	0.120	-0.041	-0.060	-0.054
-367.860	29.245	-0.040	-0.028	0.063	0.064
-365.831	700.000	0.014	-0.128	0.032	-0.198
-363.802	-36.495	0.183	-0.049	0.069	0.043
-361.773	158.853	0.086	0.162	0.088	0.034
-359.744	-200.000	-0.003	0.146	-0.019	0.163
-357.714	0.648	0.121	0.058	-0.072	-0.085
-355.685	-73.676	-0.120	0.014	0.138	-0.017
-353.656	535.694	-0.017	-0.095	-0.104	-0.010
-351.627	110.763	0.043	0.061	-0.015	-0.016
-349.598	-102.062	-0.094	0.005	0.150	0.043
-347.568	432.901	-0.030	-0.141	-0.033	-0.011
-345.539	26.087	0.041	0.027	-0.110	0.104
-343.510	103.377	0.075	-0.099	-0.010	-0.018
-341.481	22.235	-0.069	-0.044	0.020	0.086
-339.452	113.754	0.049	0.071	-0.103	0.131
-337.422	-21.990	0.006	0.002	-0.069	0.118
-335.393	-200.000	-0.002	0.088	-0.132	-0.075
-333.364	-200.000	0.008	-0.182	-0.047	0.077
-331.335	-3.208	-0.094	-0.043	0.069	0.018
-329.306	7.588	-0.038	0.020	-0.017	-0.013
-327.276	-37.888	0.154	0.040	0.012	-0.087
-325.247	156.043	-0.020	-0.036	-0.073	-0.072
-323.218	85.323	0.011	0.013	-0.124	0.015
-321.189	302.405	0.020	0.067	-0.027	0.052
-319.160	-31.849	0.098	-0.029	-0.064	0.080
-317.131	-45.935	0.035	0.008	-0.017	-0.030
-315.101	-82.236	-0.146	0.014	0.011	0.141
-313.072	-40.497	-0.044	-0.011	0.042	-0.036
-311.043	700.000	0.007	0.111	0.029	0.057
-309.014	94.873	0.041	-0.051	-0.000	0.055
-306.985	-111.361	-0.148	0.005	0.018	-0.099
-304.955	700.000	0.014	-0.155	-0.154	0.025
-302.926	-200.000	-0.002	0.109	0.028	0.021
-300.897	23.135	0.132	0.085	-0.009	-0.043
-298.868	104.588	0.120	0.161	0.089	-0.030
-296.839	-10.212	0.055	0.023	0.056	0.074
-294.809	73.986	-0.072	-0.077	-0.034	-0.116
-292.780	87.663	0.101	-0.119	0.035	0.158
-290.751	229.537	-0.054	-0.144	-0.010	-0.127
-288.722	700.000	0.004	-0.050	-0.026	0.012
-286.693	308.684	0.011	-0.039	0.057	-0.002
-284.664	159.119	-0.063	0.119	-0.027	-0.019
-282.634	-134.176	0.200	-0.003	-0.021	-0.110
-280.605	183.979	-0.084	-0.180	-0.053	0.039
-278.576	700.000	-0.000	0.006	-0.031	0.066
-276.547	160.586	0.024	-0.045	0.096	0.026
-274.518	2.777	0.050	-0.025	0.021	0.076
-272.488	79.575	-0.024	0.027	-0.016	-0.034
-270.459	193.929	-0.050	0.114	0.052	-0.003
-268.430	99.594	-0.086	-0.112	-0.055	-0.079
-266.401	-42.159	0.048	0.012	-0.013	0.035
-264.372	64.574	-0.109	-0.106	-0.106	0.115
-262.342	-11.227	-0.165	-0.067	0.167	0.003
-260.313	-13.608	0.112	-0.044	0.043	0.005
-258.284	68.086	0.102	0.102	-0.068	0.070
-256.255	-8.487	0.031	0.013	-0.005	0.248
-254.226	122.198	-0.050	-0.075	0.044	-0.171
-252.196	700.000	0.002	0.031	0.081	0.062
-250.167	79.855	-0.079	-0.088	0.015	-0.054
-248.138	89.084	-0.027	-0.032	0.071	0.069
-246.109	239.921	-0.031	-0.085	-0.007	-0.113
-244.080	-134.320	-0.109	-0.001	0.047	0.059
-242.051	-28.957	-0.100	-0.031	-0.046	-0.108
-240.021	-2.925	0.034	0.016	-0.013	-0.060
-237.992	416.925	-0.003	-0.012	0.083	-0.045
-235.963	-1.207	0.095	0.045	0.083	-0.028
-233.934	21.499	0.059	-0.037	0.169	0.154
-231.905	-45.146	-0.080	0.018	-0.035	-0.104
-229.875	42.012	-0.075	0.059	-0.019	0.127
-227.846	148.123	0.030	-0.054	-0.034	0.073
-225.817	62.473	-0.073	-0.070	0.018	-0.062
-223.788	143.559	-0.071	0.122	-0.154	0.016
-221.759	-37.938	-0.024	-0.006	-0.062	0.074
-219.729	294.966	0.048	0.159	0.073	0.041
-217.700	71.296	-0.106	-0.110	0.182	0.130
-215.671	101.850	0.099	-0.131	0.122	-0.061
-213.642	27.095	0.203	0.136	0.082	-0.055
-211.613	290.573	-0.035	0.115	0.044	-0.046
-209.584	-17.921	0.084	0.031	0.043	-0.037
-207.554	144.688	-0.048	-0.083	0.123	-0.108
-205.525	61.553	0.105	0.099	-0.021	-0.030
-203.496	70.917	-0.097	0.100	-0.065	0.108
-201.467	-72.789	0.124	0.015	-0.035	-0.099
-199.438	630.154	0.010	0.063	-0.054	-0.068
-197.408	56.241	0.082	0.074	0.079	0.098
-195.379	-53.577	-0.054	0.010	0.019	-0.055
-193.350	235.999	0.060	0.162	-0.064	-0.156
-191.321	141.019	-0.084	0.144	0.047	0.001
-189.292	52.323	-0.064	0.056	-0.055	-0.044
-187.262	-62.387	0.029	0.005	-0.175	-0.044
-185.233	334.231	-0.009	0.035	-0.082	0.150
-183.204	57.895	-0.025	-0.023	0.110	0.053
-181.175	-200.000	-0.002	-0.098	0.003	0.006
-179.146	205.905	-0.019	0.046	-0.158	0.021
-177.116	80.151	0.049	-0.055	0.084	-0.113
-175.087	-60.182	0.141	0.024	0.074	0.057
-173.058	189.566	-0.013	0.029	-0.114	0.026
-171.029	82.776	-0.125	0.143	0.144	-0.032
-169.000	-122.791	-0.123	-0.003	0.090	-0.094
-166.971	-16.441	0.051	0.019	-0.037	0.110
-164.941	24.302	0.072	0.046	0.040	0.014
-162.912	-21.836	0.123	-0.043	0.153	-0.035
-160.883	55.520	0.036	-0.033	0.060	0.013
-158.854	235.574	0.041	0.110	0.019	0.117
-156.825	-54.571	-0.084	0.016	0.051	0.103
-154.795	637.853	-0.024	0.159	-0.026	-0.015
-152.766	42.714	-0.075	-0.059	0.127	0.062
-150.737	-12.706	0.030	-0.012	-0.036	0.023
-148.708	-200.000	-0.003	-0.126	0.066	0.011
-146.679	27.792	0.063	0.043	-0.004	-0.040
-144.649	30.655	-0.160	-0.112	0.053	-0.072
-142.620	113.748	0.046	0.065	-0.041	-0.046
-140.591	12.366	-0.024	0.013	0.006	0.081
-138.562	-10.025	0.075	0.031	-0.072	0.077
-136.533	30.778	-0.124	-0.087	-0.045	-0.029
-134.503	4.426	-0.136	0.069	0.056	0.046
-132.474	247.090	0.036	0.100	0.024	0.061
-130.445	700.000	-0.015	0.124	-0.084	-0.037
-128.416	78.894	0.085	-0.094	0.183	0.040
-126.387	362.560	-0.026	0.107	0.071	-0.043
-124.358	33.917	-0.070	0.050	-0.025	-0.016
-122.328	-24.366	-0.103	0.034	0.012	-0.016
-120.299	-94.442	0.069	0.005	-0.070	0.087
-118.270	309.511	-0.007	0.024	-0.077	-0.018
-116.241	156.701	-0.041	0.077	0.127	0.037
-114.212	-101.023	0.047	-0.003	0.043	-0.123
-112.182	477.649	-0.011	0.054	-0.124	-0.151
-110.153	-4.112	0.092	0.041	-0.169	0.038
-108.124	79.141	0.098	0.109	0.027	-0.116
-106.095	-37.890	-0.178	0.047	0.056	0.023
-104.066	-98.318	0.150	-0.009	-0.032	-0.006
-102.036	130.409	-0.020	0.032	0.041	0.023
-100.007	-12.890	0.060	-0.026	0.055	-0.095
-97.978	-65.987	-0.115	-0.018	-0.065	-0.063
-95.949	700.000	-0.004	-0.026	0.155	-0.042
-93.920	331.942	-0.023	0.075	0.008	0.049
-91.891	-58.681	-0.033	0.007	-0.120	-0.059
-89.861	115.343	-0.078	-0.104	0.007	-0.031
-87.832	403.285	-0.021	0.080	-0.017	-0.112
-85.803	27.295	0.056	-0.055	0.033	0.065
-83.774	-23.729	-0.022	0.009	-0.053	-0.070
-81.745	78.773	-0.068	-0.111	-0.075	0.037
-79.715	-15.638	-0.046	0.024	0.128	-0.041
-77.686	21.658	-0.135	-0.084	-0.119	-0.037
-75.657	-69.601	-0.131	0.018	0.000	-0.025
-73.628	-200.000	0.008	-0.188	-0.032	-0.115
-71.599	291.098	-0.053	-0.186	0.204	-0.003
-69.569	700.000	0.005	0.070	-0.102	-0.053
-67.540	-26.863	0.020	-0.006	0.023	-0.024
-65.511	-44.286	-0.171	-0.051	0.127	-0.043
-63.482	73.203	-0.037	0.050	0.017	0.001
-61.453	700.000	0.213	-3.138	0.271	-3.108
-59.423	107.405	-1.075	1.559	-1.210	1.673
-57.394	9.111	-0.455	0.263	-0.374	0.108
-55.365	224.590	-14.325	-36.620	-14.155	-36.000
-53.336	700.000	100.027	910.402	98.064	892.071
-51.307	134.360	2353.101	3461.601	2355.204	3462.992
-49.278	81.604	1876.997	2139.308	1881.611	2148.796
-47.248	105.579	1762.904	2250.330	1761.294	2242.821
-45.219	60.033	1771.685	1969.682	1763.349	1961.326
-43.190	54.224	1736.551	1895.285	1727.840	1885.832
-41.161	64.080	1732.482	1887.562	1725.117	1880.033
-39.132	48.312	1730.638	1884.800	1724.138	1878.841
-37.102	46.269	1726.144	1879.827	1720.952	1875.278
-35.073	83.458	1723.740	1878.200	1718.157	1873.302
-33.044	86.634	1720.762	1874.325	1714.762	1867.465
-31.015	71.834	1718.561	1871.912	1710.174	1863.485
-28.986	97.525	1716.318	1867.626	1709.497	1861.080
-26.956	69.050	1713.376	1864.072	1707.946	1858.994
-24.927	40.556	1710.496	1860.395	1706.663	1857.163
-22.898	91.410	1707.754	1857.787	1703.992	1852.969
-20.869	208.395	1706.723	1855.998	1699.994	1848.647
-18.840	-129.583	1704.118	1852.345	1696.916	1846.395
-16.810	-33.632	1701.767	1849.291	1696.141	1843.998
-14.781	39.958	1699.421	1847.454	1693.793	1841.321
-12.752	-29.202	1697.499	1845.435	1692.506	1839.181
-10.723	46.766	1693.663	1841.571	1689.077	1834.972
-8.694	34.405	1692.329	1839.626	1687.515	1834.091
-6.665	32.294	1690.693	1836.733	1684.813	1832.229
-4.635	38.445	1687.357	1832.801	1685.355	1831.745
-2.606	38.387	1687.016	1831.379	1683.298	1829.906
-0.577	38.436	1684.330	1827.690	1680.634	1828.167
1.452	37.335	1647.299	1766.326	1668.259	1801.244
3.481	33.823	1375.510	1420.706	1419.620	1462.214
5.511	34.071	1254.086	1299.513	1114.292	1148.875
7.540	33.933	1235.748	1278.629	1085.814	1123.429
9.569	33.798	1218.571	1258.789	1060.167	1093.093
11.598	33.763	1214.062	1253.495	1053.194	1085.918
13.627	33.760	1211.206	1251.062	1052.222	1086.014
15.657	33.823	1213.208	1253.002	1053.735	1087.663
17.686	33.801	1210.704	1249.420	1051.028	1083.646
19.715	33.845	1209.094	1247.705	1049.795	1082.532
21.744	33.650	1206.451	1243.439	1049.778	1081.867
23.773	33.771	1200.315	1238.282	1046.629	1078.369
25.802	33.831	1198.173	1235.981	1043.585	1075.318
27.832	33.822	1194.762	1231.346	1041.277	1071.989
29.861	33.324	1187.552	1218.112	1037.335	1048.069
31.890	25.437	1166.925	1095.622	1010.557	922.241
33.919	22.311	1147.074	1040.324	999.559	895.624
35.948	22.266	1143.656	1032.801	993.070	885.239
37.978	20.833	1137.952	1020.670	994.697	886.750
40.007	18.847	1129.688	1013.062	991.767	880.746
42.036	19.528	1130.909	1015.019	989.326	879.992
44.065	18.232	1131.003	1014.328	990.075	880.127
46.094	17.681	1128.661	1013.438	988.859	879.295
48.124	17.633	1128.984	1012.677	987.520	878.489
50.153	17.580	1125.907	1009.292	987.291	878.508
52.182	17.601	1122.198	1005.907	985.623	876.687
54.211	17.599	1119.747	1003.451	984.453	882.308
56.240	18.228	1120.444	1012.265	1003.948	988.390
58.270	26.290	1140.389	1132.067	1014.152	1041.223
60.299	29.398	1148.752	1181.002	1014.984	1054.426
62.328	30.447	1152.424	1199.046	1016.938	1063.767
64.357	31.079	1154.740	1209.911	1017.988	1067.967
66.386	31.066	1157.679	1217.910	1015.842	1067.412
68.415	30.795	1157.940	1219.863	1013.918	1065.489
70.445	25.779	1156.551	1218.015	1009.449	1059.454
72.474	20.751	1151.051	1209.443	1011.493	1060.334
74.503	19.590	1149.914	1207.764	1007.542	1055.638
76.532	19.456	1148.939	1204.904	1006.991	1051.977
78.561	19.156	1143.374	1195.457	1004.581	1047.976
80.591	19.245	1141.181	1193.323	1004.686	1051.236
82.620	19.465	1144.122	1197.315	1004.608	1051.273
84.649	19.567	1139.375	1193.610	1002.703	1049.216
86.678	19.483	1140.122	1192.972	1002.411	1046.089
88.707	19.320	1138.732	1189.265	1000.286	1041.418
90.737	19.152	1136.943	1185.212	993.716	1031.177
92.766	19.353	1130.960	1175.377	992.166	1028.814
94.795	19.750	1130.113	1172.837	994.284	1030.911
96.824	25.390	1127.548	1170.635	994.621	1030.947
98.853	30.374	1129.503	1173.532	993.736	1032.555
100.882	32.249	1128.370	1174.315	993.531	1035.243
102.912	32.930	1126.607	1175.554	990.031	1032.463
104.941	33.387	1124.272	1174.741	987.125	1030.002
106.970	33.679	1124.967	1176.305	987.216	1033.137
108.999	33.706	1122.856	1173.799	989.073	1029.830
111.028	33.181	1122.041	1168.810	986.827	1026.302
113.058	33.136	1122.684	1169.994	984.056	1026.579
115.087	33.342	1122.185	1171.977	983.770	1026.973
117.116	33.136	1119.836	1169.661	982.664	1026.471
119.145	33.061	1117.104	1167.453	979.359	1022.077
121.174	33.336	1113.817	1165.064	977.470	1020.272
123.204	33.399	1113.701	1165.051	979.317	1021.074
125.233	33.290	1112.937	1162.641	976.779	1019.244
127.262	33.311	1115.941	1167.679	974.219	1017.324
129.291	33.227	1112.062	1163.613	975.875	1018.482
131.320	32.835	1110.973	1161.160	971.074	1012.857
133.350	32.565	1110.665	1159.499	969.870	1012.219
135.379	32.578	1105.789	1154.122	971.781	1009.925
137.408	32.457	1102.583	1147.492	967.110	1003.867
139.437	32.549	1099.420	1142.667	967.474	1005.055
141.466	32.825	1100.911	1144.939	967.252	1002.906
143.495	32.686	1101.222	1141.821	962.325	995.244
145.525	32.659	1099.294	1138.626	961.884	996.344
147.554	32.804	1096.247	1136.214	961.317	996.990
149.583	32.719	1095.339	1136.455	958.130	993.779
151.612	32.712	1092.530	1134.350	956.569	991.647
153.641	32.911	1091.384	1133.426	956.452	990.389
155.671	32.977	1091.655	1132.535	953.055	983.851
157.700	32.859	1089.670	1127.556	952.379	983.353
159.729	32.955	1088.853	1127.065	955.018	988.330
161.758	33.142	1087.433	1127.455	952.163	984.644
163.787	33.046	1086.702	1126.586	948.989	979.150
165.817	33.043	1086.722	1125.221	946.455	978.006
167.846	33.125	1084.516	1123.281	945.442	979.586
169.875	33.210	1084.324	1124.868	945.988	980.540
171.904	33.288	1080.893	1122.469	945.774	981.127
173.933	33.256	1081.370	1123.014	946.254	979.410
175.963	32.984	1080.115	1120.126	941.681	973.921
177.992	32.692	1079.541	1117.937	940.228	972.158
180.021	32.643	1077.086	1115.056	940.168	972.555
182.050	32.667	1071.349	1108.898	940.999	975.060
184.079	32.748	1071.169	1111.275	937.329	969.755
186.108	32.658	1068.602	1107.499	934.403	967.544
188.138	32.836	1067.260	1106.866	934.478	969.625
190.167	33.153	1069.356	1111.455	934.627	969.690
192.196	33.231	1068.097	1110.345	934.382	968.673
194.225	33.120	1066.625	1107.961	932.071	969.476
196.254	33.223	1067.648	1112.155	932.023	968.267
198.284	33.087	1066.981	1110.672	930.703	966.219
200.313	33.164	1065.488	1108.243	930.252	964.684
202.342	33.068	1063.703	1104.237	926.916	959.113
204.371	32.906	1059.215	1097.296	923.254	957.527
206.400	33.087	1058.375	1098.623	923.794	956.060
208.430	33.078	1060.593	1099.201	922.820	955.043
210.459	33.120	1059.895	1098.124	921.754	953.417
212.488	33.146	1056.043	1093.559	919.400	949.798
214.517	32.999	1053.712	1090.260	919.153	949.356
216.546	32.940	1050.536	1086.788	918.430	947.400
218.575	32.769	1048.963	1083.334	919.225	947.850
220.605	32.807	1051.106	1085.795	916.603	946.314
222.634	33.015	1051.494	1086.350	916.194	947.234
224.663	33.154	1046.845	1082.781	915.973	946.128
226.692	33.192	1044.821	1081.395	915.532	944.132
228.721	33.187	1044.876	1079.544	912.339	940.123
230.751	33.364	1043.095	1077.756	908.955	939.685
232.780	33.598	1044.358	1081.853	910.400	939.190
234.809	33.589	1042.120	1076.944	907.280	936.109
236.838	33.702	1040.054	1074.910	907.076	936.433
238.867	33.616	1039.183	1073.653	906.108	936.756
240.897	33.630	1040.434	1076.741	905.600	932.599
242.926	33.143	1037.566	1070.170	902.106	925.751
244.955	32.811	1033.601	1061.973	901.453	926.909
246.984	33.044	1033.791	1063.963	901.489	927.452
249.013	33.098	1028.286	1058.884	900.241	927.102
251.043	33.354	1031.054	1064.574	897.248	922.666
253.072	33.080	1030.501	1061.629	896.653	924.589
255.101	33.288	1028.551	1061.739	897.490	925.195
257.130	33.154	1028.685	1061.471	895.798	923.532
259.159	33.215	1027.761	1061.295	893.547	917.824
261.188	33.054	1026.765	1057.390	895.969	921.763
263.218	33.089	1023.975	1054.071	896.597	924.339
265.247	33.477	1022.922	1056.459	892.186	919.381
267.276	33.311	1022.726	1054.924	890.216	918.841
269.305	33.414	1019.699	1053.511	890.288	918.466
271.334	33.672	1018.905	1052.447	889.366	916.525
273.364	33.590	1019.010	1051.410	889.130	913.503
275.393	33.196	1015.233	1044.018	886.167	907.002
277.422	32.892	1012.072	1037.657	884.198	909.165
279.451	33.347	1014.211	1044.156	884.458	910.008
281.480	33.384	1011.371	1041.852	885.406	913.131
283.510	33.227	1011.727	1044.512	885.504	911.109
285.539	33.064	1008.953	1039.349	881.977	905.933
287.568	33.037	1006.892	1035.619	877.959	904.347
289.597	33.436	1008.760	1040.499	879.045	905.689
291.626	33.463	1007.205	1038.965	881.098	906.155
293.655	33.407	1005.818	1035.648	878.711	904.679
295.685	33.660	1005.133	1036.798	872.583	897.497
297.714	33.623	1002.053	1033.052	873.570	897.303
299.743	33.269	1001.842	1030.772	875.764	898.077
301.772	33.057	1000.559	1027.608	870.503	892.786
303.801	33.338	997.757	1025.177	868.797	890.844
305.831	33.433	998.245	1026.028	869.412	890.741
307.860	33.439	997.220	1024.027	867.173	888.592
309.889	33.427	996.661	1023.184	867.331	889.820
311.918	33.501	994.417	1021.371	865.669	887.956
313.947	33.364	990.753	1017.801	866.074	889.025
315.977	33.052	989.011	1016.256	865.404	887.483
318.006	33.292	989.833	1017.228	864.444	886.619
320.035	33.420	988.533	1014.799	862.683	884.523
322.064	33.725	987.910	1015.102	861.078	881.390
324.093	33.395	988.651	1013.087	862.848	882.387
326.123	33.187	985.660	1009.638	859.916	879.840
328.152	33.448	983.537	1008.784	857.403	876.420
330.181	33.538	986.473	1010.746	855.951	876.309
332.210	33.518	984.076	1008.970	856.189	876.468
334.239	33.534	980.991	1005.427	855.814	875.574
336.268	33.501	980.220	1003.658	853.146	871.546
338.298	33.352	979.049	1001.854	851.400	871.961
340.327	33.416	977.644	1002.786	850.740	873.454
342.356	33.621	976.047	1003.729	853.379	874.541
344.385	33.586	973.453	999.787	850.557	870.645
346.414	33.472	972.792	997.826	848.620	867.726
348.444	33.159	973.490	995.567	849.177	868.561
350.473	33.433	971.739	995.977	846.703	867.757
352.502	33.719	971.027	997.441	845.703	867.280
354.531	33.789	969.660	996.479	845.304	864.487
356.560	33.537	966.065	989.508	845.420	863.395
358.590	33.411	962.803	985.050	841.448	858.819
360.619	33.320	961.426	982.167	839.546	855.467
362.648	33.084	963.092	982.165	839.261	855.082
364.677	33.006	963.972	983.404	838.941	854.888
366.706	33.101	963.985	983.435	836.932	853.634
368.736	33.103	960.307	979.722	837.547	854.063
370.765	33.316	957.610	978.217	838.412	854.988
372.794	33.282	959.472	979.489	835.295	852.478
374.823	33.379	957.285	977.923	834.242	850.532
376.852	33.238	955.032	974.494	833.285	849.067
378.881	33.346	955.390	975.292	831.203	847.946
380.911	33.687	954.136	974.502	831.189	846.639
382.940	33.570	952.133	970.799	828.105	842.760
384.969	33.482	950.020	968.318	827.570	840.808
386.998	33.260	948.165	965.836	827.502	840.918
389.027	33.269	948.286	965.920	826.277	839.287
391.057	33.448	948.397	965.247	825.485	838.530
393.086	33.640	946.072	964.229	823.922	838.683
395.115	33.495	947.807	965.820	825.348	840.620
397.144	33.443	945.498	964.026	825.679	840.938
399.173	33.350	942.708	961.205	821.628	835.911
401.203	33.088	942.040	959.559	820.431	833.852
403.232	33.027	937.896	954.888	820.501	834.479
405.261	33.205	936.764	954.494	817.418	829.980
407.290	33.134	936.908	953.212	816.389	829.523
409.319	33.176	935.747	952.100	815.508	828.316
411.348	33.289	932.536	949.179	816.289	828.645
413.378	33.409	933.000	949.701	813.112	824.536
415.407	33.287	930.517	946.165	813.990	825.538
417.436	33.189	931.235	946.151	812.767	825.137
419.465	33.387	929.797	945.964	810.956	824.505
421.494	33.507	927.550	945.029	812.660	827.216
423.524	33.541	927.168	945.565	808.940	820.678
425.553	33.293	925.310	941.853	808.258	820.681
427.582	33.233	922.819	939.072	809.195	821.525
429.611	33.250	922.755	938.542	808.104	821.029
431.640	33.434	923.403	939.777	806.286	821.220
433.670	33.540	921.292	937.884	805.028	819.274
435.699	33.638	919.600	936.762	804.254	816.724
437.728	33.471	919.072	934.628	803.010	815.116
439.757	33.559	917.561	932.984	800.458	810.442
441.786	33.322	914.972	928.013	799.711	809.970
443.816	33.319	912.055	925.658	799.622	810.309
445.845	33.373	912.439	925.673	796.571	806.958
447.874	33.376	909.700	922.889	795.699	806.623
449.903	33.302	909.371	921.846	796.607	806.054
451.932	33.342	909.952	922.067	796.223	805.607
453.961	33.250	909.093	920.471	794.720	803.599
455.991	33.184	908.207	919.198	793.738	802.229
458.020	33.103	906.629	916.030	793.292	801.246
460.049	33.238	906.882	915.975	792.604	800.338
462.078	33.399	906.952	916.116	791.405	798.056
464.107	33.283	904.073	913.082	789.721	795.859
466.137	33.188	901.335	909.589	786.882	792.324
468.166	33.126	900.340	907.565	786.204	791.638
470.195	33.180	900.096	907.380	785.282	790.391
472.224	33.241	899.163	905.965	785.214	791.301
474.253	33.323	897.075	904.527	784.708	791.395
476.283	33.364	896.720	904.988	783.950	790.912
478.312	33.299	894.213	902.237	781.359	787.829
480.341	33.136	891.427	899.106	779.585	787.433
482.370	33.248	890.315	899.661	780.259	789.748
484.399	33.644	893.479	905.306	777.667	785.864
486.428	33.538	891.419	901.716	775.473	781.362
488.458	33.151	888.457	895.738	776.823	783.096
490.487	33.108	885.576	892.759	775.815	782.865
492.516	33.368	886.154	896.259	774.903	781.061
494.545	33.260	887.580	896.441	774.721	780.701
496.574	32.981	886.180	893.299	772.968	778.638
498.604	32.983	885.487	892.925	773.450	778.758
500.633	33.091	883.059	890.969	772.298	778.915
502.662	33.196	880.664	889.364	772.987	780.865
504.691	33.329	881.016	891.468	771.442	778.778
506.720	33.299	881.306	892.117	771.670	779.461
508.750	33.387	878.558	890.063	769.181	777.492
510.779	33.405	877.391	888.629	767.898	774.503
512.808	33.367	876.953	887.553	767.231	774.370
514.837	33.438	878.089	888.573	761.996	767.096
516.866	33.317	875.428	883.532	761.850	765.350
518.896	33.135	873.409	879.320	762.187	767.383
520.925	33.241	873.103	879.568	760.082	762.995
522.954	33.252	872.475	877.481	759.542	763.241
524.983	33.234	869.942	874.160	760.083	764.712
527.012	33.235	868.494	874.493	759.607	763.657
529.041	33.186	867.813	873.575	760.744	765.934
531.071	33.471	865.650	872.514	758.344	762.448
533.100	33.581	863.799	870.696	756.739	758.937
535.129	33.166	864.103	868.437	754.912	757.159
537.158	33.125	864.848	868.782	755.710	758.083
539.187	33.127	863.162	866.221	754.883	756.353
541.217	33.089	860.987	863.194	750.315	751.857
543.246	33.377	861.388	864.706	748.680	749.742
545.275	33.246	861.605	863.074	751.313	752.011
547.304	33.355	857.149	857.867	750.262	750.661
549.333	33.435	855.220	856.192	746.714	746.682
551.363	33.354	852.431	853.484	748.293	749.692
553.392	33.421	856.838	858.628	745.492	746.554
555.421	33.366	856.261	858.406	741.862	741.633
557.450	32.963	853.856	854.409	740.585	739.612
559.479	32.844	852.022	851.197	738.253	736.674
561.509	32.775	851.132	850.163	738.751	738.143
563.538	32.671	849.072	847.817	736.750	736.218
565.567	32.927	845.509	845.160	732.126	730.897
567.596	32.996	845.044	844.878	731.750	731.110
569.625	33.142	844.861	845.419	732.874	731.934
571.654	33.105	844.998	844.448	730.554	731.197
573.684	33.205	844.213	845.461	731.443	731.461
575.713	32.983	843.397	844.145	730.025	729.985
577.742	32.978	841.003	841.779	729.950	730.882
579.771	33.212	841.322	844.129	727.928	727.807
581.800	33.189	842.314	844.850	725.420	726.587
583.830	33.341	841.268	844.808	725.371	727.973
585.859	33.315	840.649	845.033	724.482	726.861
587.888	33.249	839.885	843.520	723.974	725.699
589.917	33.344	839.041	843.651	723.567	723.639
591.946	33.285	837.951	841.424	721.743	721.937
593.976	33.374	835.704	838.814	718.864	719.481
596.005	33.384	833.563	836.895	718.757	719.377
598.034	33.288	832.038	835.484	717.249	718.137
600.063	33.275	830.454	834.166	716.903	717.173
602.092	33.127	826.204	828.248	715.394	715.276
604.121	33.072	826.460	826.994	711.998	712.061
606.151	33.125	827.605	828.049	708.780	708.627
608.180	33.142	824.985	824.809	708.653	708.448
610.209	33.081	824.275	824.060	707.655	707.012
612.238	33.246	824.219	824.019	705.294	705.102
614.267	33.285	821.570	820.705	704.604	703.952
616.297	33.215	820.275	819.154	704.807	704.374
618.326	33.350	820.062	819.209	703.368	702.292
620.355	33.449	817.745	816.521	703.553	702.868
622.384	33.512	818.337	816.949	702.152	701.095
624.413	33.657	816.427	815.236	701.804	701.058
626.443	33.588	811.361	809.353	700.060	699.246
628.472	33.745	811.876	810.314	697.637	696.158
630.501	33.680	812.490	810.508	695.451	693.582
632.530	33.586	811.871	809.655	697.811	696.992
634.559	33.653	810.590	808.570	697.213	695.338
636.589	33.655	809.833	807.861	695.552	693.928
638.618	33.662	807.587	805.166	695.826	694.047
640.647	33.643	806.383	804.242	693.507	691.185
642.676	33.400	803.851	801.579	693.125	691.177
644.705	33.367	802.694	800.134	693.481	691.288
646.734	33.315	802.722	799.893	691.277	688.760
648.764	33.245	801.557	798.014	690.816	687.956
650.793	33.395	799.759	797.133	691.075	688.751
652.822	33.447	800.843	798.354	687.966	684.849
654.851	33.321	801.487	798.129	685.009	683.934
656.880	33.285	800.780	796.784	685.502	685.232
658.910	33.415	797.643	794.483	684.179	683.191
660.939	33.289	795.565	791.482	682.484	681.784
662.968	33.350	793.279	788.946	682.712	681.368
664.997	33.245	793.590	788.872	682.608	681.706
667.026	33.139	793.764	788.157	681.784	681.516
669.056	33.331	792.600	787.977	680.966	679.546
671.085	33.462	791.478	787.708	680.121	678.867
673.114	33.415	789.799	785.868	678.960	676.635
675.143	33.348	786.943	782.248	678.192	675.406
677.172	33.080	787.406	780.628	676.190	672.476
679.202	33.268	786.762	781.193	673.961	668.984
681.231	33.066	785.326	778.033	673.543	669.123
683.260	33.109	784.557	777.336	672.695	667.921
685.289	33.145	782.128	775.445	672.140	665.369
687.318	32.930	782.220	773.519	670.202	664.331
689.347	32.980	778.551	770.132	668.533	661.912
691.377	32.943	776.331	767.448	667.440	660.578
693.406	32.882	778.172	768.828	668.213	660.369
695.435	32.809	776.906	766.721	667.928	659.705
697.464	32.771	773.248	762.212	667.437	659.304
699.493	32.755	772.569	761.425	667.487	660.228
701.523	32.838	770.386	760.043	668.437	661.704
703.552	32.995	771.296	762.569	666.095	658.423
705.581	32.891	770.025	760.670	662.079	653.664
707.610	32.819	766.217	755.113	661.772	653.743
709.639	33.011	767.368	756.856	661.590	652.892
711.669	32.953	764.475	753.175	663.809	656.413
713.698	32.878	759.187	748.347	661.609	653.847
715.727	32.754	758.516	748.044	659.903	652.080
717.756	32.839	760.612	750.406	660.535	652.729
719.785	32.817	759.285	749.325	659.861	651.680
721.814	32.671	757.232	746.345	657.781	650.821
723.844	32.845	756.763	746.827	656.343	650.554
725.873	32.931	756.673	748.417	655.929	649.608
727.902	32.872	757.225	748.718	655.729	648.675
729.931	32.610	754.511	744.255	654.296	647.438
731.960	32.748	753.331	743.864	654.311	645.764
733.990	32.565	750.837	739.776	654.471	646.272
736.019	32.402	750.071	738.429	653.416	646.157
738.048	32.646	749.572	739.740	651.969	643.701
740.077	32.531	746.529	735.111	651.871	645.481
742.106	32.919	745.636	736.222	652.350	646.955
744.136	33.117	748.442	739.987	649.840	644.260
746.165	32.938	746.631	737.678	648.927	644.156
748.194	33.042	747.555	739.525	647.706	643.150
750.223	33.022	747.201	738.685	648.486	642.096
752.252	32.911	745.783	736.048	646.446	640.041
754.282	33.094	744.994	736.301	644.861	636.931
756.311	32.797	743.070	731.949	644.667	636.503
758.340	32.787	742.039	730.256	644.906	636.077
760.369	32.859	739.679	728.345	644.177	634.725
762.398	32.705	739.388	726.905	643.491	635.608
764.427	33.008	737.798	726.452	640.932	632.630
766.457	33.234	736.692	725.910	638.832	629.157
768.486	32.970	735.444	723.080	639.200	629.036
770.515	32.890	732.470	719.440	640.007	631.643
772.544	33.141	732.932	722.343	639.877	631.453
774.573	33.067	733.640	723.242	636.519	626.759
776.603	32.987	731.349	719.026	635.425	625.263
778.632	32.888	731.251	718.701	635.575	625.320
780.661	32.967	731.408	718.845	635.893	624.764
782.690	32.988	730.765	716.617	634.567	622.721
784.719	32.922	729.443	714.640	634.248	622.260
786.749	32.965	727.621	712.212	633.088	620.830
788.778	33.017	725.972	710.925	631.452	618.930
790.807	32.881	725.219	709.568	630.790	618.725
792.836	33.033	725.670	710.959	630.880	619.264
794.865	32.940	725.735	710.989	631.296	619.664
796.894	32.814	725.065	710.540	630.014	617.921
798.924	32.800	723.813	709.307	628.285	616.095
800.953	32.787	722.687	707.816	627.807	616.704
802.982	32.873	721.810	707.432	627.033	615.612
805.011	32.926	721.477	706.897	626.309	615.251
807.040	32.987	719.817	706.019	623.952	612.989
809.070	32.981	717.403	704.045	622.807	612.569
811.099	33.099	716.484	702.664	622.716	612.588
813.128	33.295	716.649	702.941	621.603	610.101
815.157	33.076	715.095	700.473	622.000	610.597
817.186	32.902	714.203	699.571	621.683	611.396
819.216	33.091	714.517	701.372	621.474	611.455
821.245	33.173	713.544	701.102	620.360	610.667
823.274	33.133	713.290	701.003	619.755	610.283
825.303	33.086	712.716	700.849	619.745	609.402
827.332	32.918	712.216	699.119	617.830	607.182
829.362	32.710	711.686	696.937	616.281	605.403
831.391	32.743	709.097	694.228	616.199	605.009
833.420	32.733	708.394	692.989	615.772	605.890
835.449	33.078	709.159	695.558	614.567	603.787
837.478	33.023	706.202	691.843	614.231	602.224
839.507	32.979	706.094	691.023	612.977	600.266
841.537	32.956	704.589	689.019	611.012	598.425
843.566	32.901	702.769	686.442	610.821	598.673
845.595	32.939	703.721	687.500	608.859	596.098
847.624	33.024	701.179	684.731	608.826	595.961
849.653	33.028	699.968	683.552	607.712	595.220
851.683	32.985	699.634	682.881	605.940	592.509
853.712	32.924	700.460	683.431	605.045	592.034
855.741	32.894	698.226	681.302	605.152	592.562
857.770	33.114	697.914	681.440	604.628	591.095
859.799	33.286	699.510	683.577	604.636	591.277
861.829	33.448	697.519	681.690	604.335	590.773
863.858	33.413	694.757	677.928	601.962	588.093
865.887	33.130	694.495	676.640	602.002	587.231
867.916	33.020	693.152	675.359	600.451	585.119
869.945	32.987	692.430	674.492	598.805	583.635
871.975	32.793	690.820	671.885	598.054	583.392
874.004	33.057	689.886	671.453	598.017	583.703
876.033	33.178	690.245	672.629	597.678	583.740
878.062	33.173	688.582	671.904	597.174	582.591
880.091	32.980	688.611	671.284	595.277	580.756
882.120	32.919	687.513	670.025	595.261	581.258
884.150	33.025	687.262	670.067	595.042	580.269
886.179	33.013	687.577	669.815	592.936	577.609
888.208	32.985	685.540	667.343	593.195	577.653
890.237	32.906	683.820	665.362	593.858	578.027
892.266	32.943	683.093	664.274	592.401	575.820
894.296	32.862	681.639	662.284	590.542	573.686
896.325	32.861	680.139	660.467	587.914	572.360
898.354	33.066	680.256	661.358	587.248	572.328
900.383	33.176	681.201	662.857	587.581	573.167
902.412	33.240	679.822	662.245	588.664	575.249
904.442	33.311	678.502	662.563	587.828	574.654
906.471	33.176	677.788	661.313	587.039	571.928
908.500	32.983	677.280	659.224	586.054	570.344
910.529	32.895	675.614	656.981	584.512	570.155
912.558	33.123	676.061	658.300	583.554	569.508
914.587	33.301	676.095	658.885	583.493	569.974
916.617	33.423	672.904	655.768	583.091	567.354
918.646	33.211	671.225	652.899	582.433	565.959
920.675	32.988	670.971	651.015	581.605	565.597
922.704	33.169	671.592	652.319	580.807	564.461
924.733	33.144	670.134	650.905	581.658	565.457
926.763	33.098	668.212	648.875	581.411	564.231
928.792	32.923	667.258	646.616	578.549	561.873
930.821	32.982	668.111	648.249	578.470	560.769
932.850	32.791	668.324	647.352	578.422	561.320
934.879	32.785	665.656	644.702	576.644	560.454
936.909	33.108	665.424	645.963	575.852	559.150
938.938	33.151	664.431	644.724	574.741	558.414
940.967	33.327	663.952	644.730	572.849	556.162
942.996	33.481	662.837	643.195	572.605	555.854
945.025	33.387	661.282	640.827	572.968	555.773
947.055	33.201	660.441	639.751	573.106	555.222
949.084	33.070	658.654	637.608	572.199	554.585
951.113	33.103	658.515	637.260	571.368	553.991
953.142	33.245	656.180	635.263	569.390	551.436
955.171	33.318	656.402	634.936	569.943	551.855
957.200	33.304	658.061	637.244	568.538	551.459
959.230	33.059	654.492	633.695	567.597	551.371
961.259	33.248	652.875	633.200	567.942	551.569
963.288	33.448	655.270	636.378	566.734	549.555
965.317	33.328	655.561	635.681	566.702	550.577
967.346	33.279	652.410	632.982	565.999	548.957
969.376	33.208	650.995	630.958	563.287	544.798
971.405	32.920	651.742	629.768	563.379	545.831
973.434	33.172	652.493	631.896	563.080	546.770
975.463	33.405	651.273	631.390	561.633	543.873
977.492	33.263	649.064	627.829	561.824	543.264
979.522	33.145	647.252	625.275	559.138	537.943
981.551	32.720	646.712	621.464	559.702	540.675
983.580	33.049	647.281	624.402	560.031	542.383
985.609	33.292	645.779	624.656	559.129	541.185
987.638	33.288	644.610	623.999	558.038	540.350
989.667	33.248	642.691	622.156	558.322	539.796
991.697	33.126	642.883	621.182	556.865	538.615
993.726	33.216	643.849	622.479	556.470	536.330
995.755	32.850	642.274	618.505	556.434	536.143
997.784	32.891	639.078	614.990	555.371	536.491
999.813	33.314	639.149	617.015	554.486	535.650
1001.843	33.328	638.526	615.843	553.180	534.066
1003.872	33.194	636.720	613.519	553.119	533.020
1005.901	33.130	635.033	610.857	551.822	531.980
1007.930	33.340	635.601	612.591	549.506	528.793
1009.959	32.870	634.589	609.767	550.455	529.334
1011.989	32.877	633.343	608.355	548.815	526.361
1014.018	32.789	632.121	605.299	549.834	530.069
1016.047	33.096	633.250	609.041	549.861	530.484
1018.076	33.095	632.022	608.529	548.066	528.116
1020.105	32.709	631.013	607.123	547.170	527.337
1022.135	32.885	629.353	605.819	546.924	527.496
1024.164	33.151	629.863	606.091	546.537	527.869
1026.193	33.440	627.180	604.421	545.037	524.149
1028.222	33.161	628.029	603.017	544.488	523.756
1030.251	33.100	628.137	603.337	543.074	522.991
1032.280	33.256	627.103	603.446	542.861	522.259
1034.310	32.984	626.294	601.714	543.872	522.874
1036.339	32.720	625.004	599.781	542.006	520.501
1038.368	32.875	624.842	599.319	540.029	518.284
1040.397	32.917	622.872	597.121	539.453	518.678
1042.426	33.089	621.615	596.934	539.572	518.363
1044.456	32.835	620.265	595.113	539.367	518.754
1046.485	32.979	620.350	595.964	540.142	519.371
1048.514	32.856	619.335	594.379	539.186	518.579
1050.543	32.859	618.325	593.825	537.106	516.198
1052.572	32.826	616.374	592.674	535.915	514.473
1054.602	32.794	617.169	592.069	536.578	516.139
1056.631	33.339	617.525	593.685	535.951	516.442
1058.660	33.386	616.667	593.118	535.745	516.715
1060.689	33.444	615.805	593.140	534.575	515.480
1062.718	33.335	614.924	591.745	533.113	512.281
1064.748	33.199	614.273	589.379	532.854	512.399
1066.777	33.081	613.026	588.444	531.802	510.537
1068.806	32.982	611.462	586.532	529.563	507.153
1070.835	32.838	609.502	582.923	528.859	506.540
1072.864	33.064	609.903	584.087	528.005	506.010
1074.893	33.038	610.455	584.892	527.050	503.676
1076.923	32.595	608.662	581.110	528.659	505.035
1078.952	32.559	606.859	579.201	528.619	505.111
1080.981	32.591	606.766	578.725	527.587	504.160
1083.010	32.682	607.932	580.118	526.847	504.210
1085.039	32.943	605.876	579.254	525.938	502.826
1087.069	33.042	604.033	577.684	525.569	502.338
1089.098	32.911	602.488	575.295	524.492	500.258
1091.127	32.739	601.233	572.148	524.205	500.063
1093.156	32.602	601.289	571.953	523.297	499.047
1095.185	32.798	601.590	572.928	522.203	497.837
1097.215	32.811	601.544	572.155	521.310	495.815
1099.244	32.645	598.094	567.384	520.577	495.243
1101.273	32.910	597.031	567.416	520.026	495.741
1103.302	32.774	597.014	567.711	518.841	494.996
1105.331	32.851	594.928	566.410	518.168	494.139
1107.360	32.963	594.466	566.499	517.842	493.220
1109.390	32.620	594.881	565.603	517.168	491.888
1111.419	32.413	592.833	563.049	517.249	491.525
1113.448	32.273	592.239	561.134	516.711	492.092
1115.477	32.525	593.161	563.996	515.617	490.798
1117.506	32.464	591.562	562.565	513.844	488.947
1119.536	32.465	590.014	561.065	513.916	489.838
1121.565	32.614	591.043	562.604	514.050	490.911
1123.594	32.926	588.467	561.023	514.886	491.996
1125.623	32.971	587.791	560.631	513.894	491.005
1127.652	32.987	588.635	561.821	513.418	490.992
1129.682	32.761	585.867	558.943	513.640	491.236
1131.711	32.576	585.601	558.588	510.924	487.546
1133.740	32.548	584.769	556.957	510.075	487.437
1135.769	32.678	582.488	554.927	508.726	485.989
1137.798	32.546	582.174	554.619	508.938	485.937
1139.828	32.517	582.404	555.101	508.876	485.265
1141.857	32.591	581.657	553.647	508.723	484.438
1143.886	32.692	580.522	552.245	507.575	482.069
1145.915	32.411	580.766	550.399	506.453	480.936
1147.944	32.532	580.425	550.763	505.665	481.711
1149.973	32.764	578.316	550.655	504.892	480.463
1152.003	32.428	576.557	547.777	503.788	479.133
1154.032	32.540	576.581	547.705	503.239	478.044
1156.061	32.639	577.156	547.695	502.856	476.583
1158.090	32.269	575.975	544.392	502.076	474.623
1160.119	32.096	575.477	542.548	500.192	471.993
1162.149	32.394	573.585	540.697	499.755	471.169
1164.178	32.305	571.053	537.379	498.748	470.617
1166.207	32.457	570.532	537.641	499.618	473.422
1168.236	32.882	571.982	541.208	499.180	473.212
1170.265	32.983	572.010	542.032	498.569	473.638
1172.295	33.017	571.349	542.026	497.712	472.619
1174.324	33.111	570.926	541.874	498.001	473.082
1176.353	32.979	569.410	539.553	495.784	469.496
1178.382	32.758	568.222	536.803	495.315	469.334
1180.411	32.881	568.197	537.608	495.846	471.410
1182.441	32.972	567.581	537.911	495.158	470.675
1184.470	32.753	567.448	537.795	494.767	470.346
1186.499	32.824	565.079	535.983	495.483	472.458
1188.528	33.452	565.990	538.382	495.130	472.119
1190.557	33.298	565.945	537.808	493.931	470.069
1192.586	33.097	565.442	536.814	491.843	466.298
1194.616	32.747	563.856	533.676	489.811	462.988
1196.645	32.172	562.249	530.012	487.612	456.520
1198.674	31.127	561.017	524.151	481.477	431.407
1200.703	26.450	553.192	490.699	471.926	387.433
1202.732	19.158	543.209	442.511	467.746	381.873
1204.762	18.757	540.082	437.618	466.064	377.612
1206.791	18.284	538.392	432.663	465.434	377.143
1208.820	18.370	535.944	430.015	464.773	376.710
1210.849	18.603	534.815	429.196	463.683	375.646
1212.878	18.586	533.382	427.617	462.728	375.078
1214.908	18.568	531.215	425.814	461.016	372.955
1216.937	18.419	530.890	425.722	459.170	370.879
1218.966	18.554	529.463	425.197	460.112	371.901
1220.995	18.465	526.443	421.263	459.357	371.373
1223.024	18.572	525.959	420.909	458.246	370.367
1225.053	20.765	529.085	434.176	462.137	391.496
1227.083	29.801	538.198	489.253	466.265	426.880
1229.112	30.786	540.301	496.410	467.961	430.060
1231.141	31.180	541.012	499.812	467.718	432.368
1233.170	31.073	541.616	501.050	467.142	431.796
1235.199	30.625	541.789	501.619	467.783	432.545
1237.229	29.626	540.636	500.207	466.840	431.745
1239.258	26.705	540.270	500.044	466.610	431.333
1241.287	19.957	539.903	499.638	465.779	430.911
1243.316	17.132	538.063	497.604	463.940	429.149
1245.345	16.956	537.152	496.631	463.570	428.608
1247.375	16.991	537.188	496.911	463.674	428.741
1249.404	16.913	534.921	494.538	463.553	428.567
1251.433	15.884	558.255	509.850	463.886	428.337
1253.462	22.288	566.500	558.346	534.611	507.527
1255.491	14.910	419.567	378.876	414.861	386.690
1257.521	20.878	386.557	374.234	374.381	358.026
1259.550	20.960	372.988	361.077	365.303	355.093
1261.579	21.454	368.890	357.873	360.432	348.188
1263.608	22.747	367.878	357.051	358.878	347.589
1265.637	29.717	367.121	356.211	358.011	346.346
1267.666	33.357	366.689	355.558	357.366	346.156
1269.696	33.866	366.316	355.066	357.066	345.557
1271.725	33.951	365.488	354.524	356.621	344.925
1273.754	33.893	364.898	353.679	356.164	344.108
1275.783	33.874	364.316	352.864	355.760	344.223
1277.812	33.976	363.816	352.749	355.303	343.565
1279.842	33.944	363.754	352.294	354.731	342.926
1281.871	33.981	363.441	352.041	354.357	342.102
1283.900	33.832	362.782	351.098	354.060	342.044
1285.929	33.873	362.043	350.643	353.790	341.742
1287.958	34.034	361.323	349.679	353.419	341.332
1289.988	33.934	361.376	349.899	353.159	340.999
1292.017	33.791	361.103	349.697	352.634	340.727
1294.046	37.062	360.776	349.306	352.062	340.260
1296.075	38.725	360.411	349.150	351.756	339.962
1298.104	38.841	359.993	348.603	351.289	339.145
1300.133	38.705	359.070	347.329	350.933	338.614
1302.163	38.845	358.826	347.480	350.207	338.425
1304.192	24.196	795.828	656.100	768.928	638.787
1306.221	52.045	949.583	1050.932	932.798	1044.090
1308.250	-45.879	218.302	62.473	215.190	61.720
1310.279	46.832	87.181	91.636	85.791	89.189
1312.309	-32.659	21.539	7.886	21.167	7.713
1314.338	-84.752	0.888	0.101	1.134	0.173
1316.367	71.851	-0.186	-0.247	-0.095	-0.383
1318.396	80.272	-0.304	-0.433	-0.203	-0.388
1320.425	61.257	-0.379	-0.457	-0.296	-0.272
1322.455	47.189	-0.420	-0.442	-0.368	-0.413
1324.484	34.746	-0.612	-0.567	-0.330	-0.584
1326.513	28.246	-0.560	-0.483	-0.338	-0.427
1328.542	111.062	-0.362	-0.648	-0.436	-0.627
1330.571	99.822	-0.409	-0.675	-0.363	-0.603
1332.601	64.820	-0.532	-0.661	-0.484	-0.513
1334.630	61.296	-0.568	-0.684	-0.518	-0.521
1336.659	110.768	-0.431	-0.769	-0.384	-0.487
1338.688	45.330	-0.594	-0.613	-0.455	-0.529
1340.717	77.758	-0.532	-0.728	-0.500	-0.520
1342.746	92.644	-0.456	-0.633	-0.424	-0.655
1344.776	55.024	-0.542	-0.569	-0.392	-0.491
1346.805	56.250	-0.505	-0.454	-0.441	-0.722
1348.834	121.433	-0.693	-0.657	-0.395	-0.502
1350.863	700.000	-0.550	-0.575	-0.370	-0.521
1352.892	224.171	-0.420	-0.633	-0.414	-0.568
1354.922	89.889	-0.470	-0.620	-0.470	-0.526
1356.951	700.000	-0.477	-0.487	-0.334	-0.663
1358.980	700.000	-0.446	-0.567	-0.523	-0.595
1361.009	-30.164	-0.450	-0.583	-0.549	-0.502
1363.038	10.124	-0.539	-0.725	-0.494	-0.742
1365.068	-8.790	-0.752	-0.648	-0.531	-0.583
1367.097	-71.650	-0.606	-0.711	-0.475	-0.620
1369.126	219.719	-0.508	-0.737	-0.397	-0.494
1371.155	325.410	-0.626	-0.564	-0.497	-0.619
1373.184	-35.096	-0.505	-0.487	-0.477	-0.729
1375.214	26.355	-0.514	-0.689	-0.549	-0.608
1377.243	49.723	-0.535	-0.759	-0.524	-0.421
1379.272	24.076	-0.501	-0.671	-0.453	-0.595
1381.301	176.649	-0.532	-0.510	-0.567	-0.433
1383.330	700.000	-0.424	-0.471	-0.429	-0.664
1385.359	-200.000	-0.496	-0.587	-0.435	-0.735
1387.389	-12.328	-0.531	-0.481	-0.453	-0.464
1389.418	22.625	-0.521	-0.700	-0.450	-0.698
1391.447	-70.775	-0.497	-0.606	-0.385	-0.627
1393.476	-200.000	-0.419	-0.664	-0.448	-0.574
1395.505	284.681	-0.488	-0.535	-0.504	-0.622
1397.535	-47.757	-0.469	-0.595	-0.400	-0.553
