DTS Sentinel unit serial number:	SN307009Multiplexer serial number:	multiplexer serial numberHardware model number:	HL4Software version number:	Halo DTS v1.0data status	okinstallation	NYAN30AUG2019differential loss correction	combinedforward channel	channel 1reverse channel	channel 1 reversedate	2003/01/11time	03:06:09forward acquisition time	60.05reverse acquisition time	60.08gamma	510.3900k internal	0.1902k external	0.1902temperature offset calibration	1.0000default loss term (dB/km)	0.3938temperature slope calibration	NaNmultiplexer offset coefficient	1.0000multiplexer slope coefficient	1.0000fibre end	1298.10T internal ref (°C)	34.42T ext. ref 1 (°C)	NaNT ext. ref 2 (°C)	NaNlength (m)	temperature (°C)	forward Stokes	forward anti-Stokes	reverse Stokes	reverse anti-Stokes-584.984	29.133	-0.080	0.058	-0.033	-0.036
-582.954	135.640	0.046	0.080	0.016	-0.011
-580.925	53.174	0.012	-0.011	0.034	0.001
-578.896	114.943	0.131	-0.199	-0.184	0.048
-576.867	365.200	0.036	0.153	-0.183	-0.095
-574.838	74.131	0.093	-0.104	-0.004	-0.063
-572.808	700.000	-0.003	0.032	0.086	-0.051
-570.779	-24.194	0.076	-0.027	-0.101	0.030
-568.750	-57.662	0.066	0.012	0.027	0.071
-566.721	43.990	-0.100	-0.084	-0.049	-0.167
-564.692	-17.494	-0.063	0.025	0.169	0.023
-562.662	-94.658	-0.016	-0.001	-0.041	0.069
-560.633	229.225	0.021	-0.059	-0.022	0.075
-558.604	-27.506	0.152	-0.050	-0.110	0.050
-556.575	-21.224	0.033	-0.012	0.080	0.000
-554.546	-26.778	-0.151	-0.050	0.033	-0.117
-552.517	83.229	-0.044	0.052	-0.006	-0.018
-550.487	580.442	-0.017	0.109	-0.060	-0.046
-548.458	168.128	0.039	0.080	-0.038	0.115
-546.429	9.226	-0.073	0.042	0.062	0.079
-544.400	55.825	-0.127	0.120	0.003	0.044
-542.371	-42.211	-0.130	-0.033	-0.035	0.222
-540.341	-200.000	0.001	-0.083	0.001	0.011
-538.312	99.787	0.063	0.085	0.072	0.024
-536.283	-200.000	0.003	-0.118	0.053	0.081
-534.254	-6.417	-0.182	0.084	0.165	-0.125
-532.225	-25.137	0.044	0.015	0.067	0.070
-530.195	269.227	-0.033	-0.106	-0.035	-0.045
-528.166	-85.076	-0.111	0.010	-0.030	0.032
-526.137	175.504	0.066	-0.143	0.122	0.004
-524.108	700.000	0.011	0.134	-0.055	0.041
-522.079	238.900	-0.044	-0.125	-0.111	0.050
-520.049	-93.415	0.121	0.009	0.100	-0.035
-518.020	-85.855	0.163	0.015	0.009	0.109
-515.991	31.450	-0.027	0.020	0.005	-0.007
-513.962	39.389	0.068	0.054	0.052	0.058
-511.933	219.061	0.026	0.070	-0.063	0.024
-509.904	440.413	0.022	0.113	-0.074	-0.009
-507.874	61.692	-0.045	0.045	-0.114	0.043
-505.845	38.574	0.136	-0.108	0.025	-0.111
-503.816	237.309	-0.022	-0.061	0.050	0.027
-501.787	-200.000	-0.003	-0.130	-0.072	-0.049
-499.758	36.431	-0.094	0.073	0.002	0.086
-497.728	0.364	-0.062	-0.031	0.063	-0.058
-495.699	-200.000	0.002	0.102	0.086	-0.068
-493.670	223.646	0.015	0.041	0.106	0.029
-491.641	6.192	0.101	0.055	0.057	-0.064
-489.612	-36.040	0.013	-0.004	0.076	0.063
-487.582	184.377	-0.010	0.022	0.054	-0.108
-485.553	-101.012	-0.141	0.008	0.112	0.059
-483.524	44.180	0.080	0.067	-0.038	0.109
-481.495	599.951	0.016	-0.102	0.002	-0.123
-479.466	-200.000	-0.004	0.232	-0.047	0.000
-477.437	113.814	-0.092	0.138	0.054	0.090
-475.407	132.842	-0.020	-0.033	0.091	0.038
-473.378	124.518	0.038	0.062	-0.099	-0.117
-471.349	131.903	0.040	-0.067	-0.006	-0.015
-469.320	137.533	0.066	0.116	-0.018	-0.037
-467.291	-17.644	0.137	-0.053	0.046	0.020
-465.261	292.760	0.042	0.147	-0.048	-0.033
-463.232	700.000	0.020	-0.157	-0.005	0.037
-461.203	83.785	-0.073	0.088	0.050	-0.003
-459.174	19.767	0.102	-0.066	-0.017	-0.027
-457.145	308.259	0.019	0.069	-0.021	-0.038
-455.115	700.000	-0.007	-0.100	-0.118	-0.056
-453.086	57.481	0.097	0.093	-0.000	0.010
-451.057	28.870	-0.048	0.034	-0.066	-0.098
-449.028	-69.352	-0.118	0.017	-0.006	-0.071
-446.999	-79.509	0.082	0.009	0.038	-0.000
-444.969	225.113	-0.012	-0.034	0.079	0.048
-442.940	700.000	0.021	0.248	-0.051	0.178
-440.911	-46.258	0.150	0.035	0.012	0.093
-438.882	40.105	-0.031	-0.025	0.090	-0.015
-436.853	-32.287	0.078	0.024	-0.100	-0.058
-434.824	-22.313	-0.056	0.020	-0.002	0.009
-432.794	63.018	-0.072	-0.073	-0.092	0.005
-430.765	77.158	-0.086	-0.098	0.078	0.061
-428.736	96.917	-0.042	0.056	0.088	-0.011
-426.707	700.000	0.007	0.116	-0.029	0.082
-424.678	152.586	0.015	0.029	-0.044	-0.064
-422.648	-200.000	0.003	0.147	-0.103	0.050
-420.619	5.187	0.174	-0.094	-0.121	0.029
-418.590	336.935	0.016	-0.062	-0.064	-0.001
-416.561	700.000	-0.013	0.162	-0.009	-0.073
-414.532	-200.000	0.002	0.082	-0.014	0.101
-412.502	49.320	-0.036	-0.032	-0.200	-0.004
-410.473	155.223	0.022	-0.043	-0.127	0.075
-408.444	-136.478	0.136	0.002	0.042	0.017
-406.415	105.201	-0.106	0.150	0.034	-0.144
-404.386	3.694	-0.065	0.034	-0.135	0.143
-402.357	180.378	0.027	-0.061	0.095	0.016
-400.327	65.802	-0.118	0.122	-0.026	-0.006
-398.298	-65.067	0.095	-0.015	0.113	0.063
-396.269	-25.755	0.114	0.039	-0.116	0.019
-394.240	-49.881	0.040	0.009	0.013	0.060
-392.211	700.000	0.013	0.122	-0.081	-0.039
-390.181	256.841	0.031	-0.096	0.136	-0.110
-388.152	61.147	0.071	0.070	-0.079	0.063
-386.123	-6.595	0.149	-0.068	-0.033	0.134
-384.094	-5.060	0.104	0.048	0.026	0.094
-382.065	-49.759	0.115	-0.025	0.000	-0.080
-380.035	-61.483	0.037	0.006	0.096	0.079
-378.006	700.000	-0.009	-0.067	0.050	0.030
-375.977	131.908	-0.020	-0.034	-0.103	0.012
-373.948	700.000	0.013	0.136	0.039	-0.199
-371.919	-69.158	0.030	0.004	-0.035	-0.003
-369.889	34.233	0.083	0.063	-0.120	0.033
-367.860	-22.541	-0.075	0.027	-0.073	-0.104
-365.831	185.402	0.042	0.096	0.035	-0.099
-363.802	-38.582	0.099	0.027	-0.133	-0.059
-361.773	-66.330	-0.166	-0.025	0.092	-0.123
-359.744	148.809	-0.038	0.070	0.107	-0.191
-357.714	-76.641	0.162	-0.019	0.047	0.024
-355.685	42.638	-0.082	-0.068	-0.086	-0.036
-353.656	-121.137	-0.157	-0.004	0.097	0.024
-351.627	14.467	-0.141	-0.085	0.015	-0.005
-349.598	163.603	-0.033	0.066	-0.116	-0.034
-347.568	-20.517	0.016	0.006	-0.028	-0.042
-345.539	-10.876	0.055	0.024	0.014	0.081
-343.510	-27.593	0.065	-0.021	-0.012	0.015
-341.481	108.615	0.048	0.069	0.063	-0.048
-339.452	122.953	-0.057	-0.091	0.006	-0.003
-337.422	-51.028	-0.136	-0.029	-0.000	0.144
-335.393	628.886	-0.023	0.153	0.005	-0.071
-333.364	40.850	-0.020	0.016	-0.044	-0.058
-331.335	166.127	0.068	-0.140	-0.036	-0.026
-329.306	197.061	-0.047	-0.112	-0.097	-0.031
-327.276	-70.594	-0.055	-0.008	-0.075	0.171
-325.247	181.631	-0.037	-0.082	-0.130	0.108
-323.218	-82.755	0.058	-0.006	0.056	0.119
-321.189	-1.189	-0.064	0.032	0.019	0.091
-319.160	-93.537	-0.124	-0.009	-0.022	0.118
-317.131	56.274	-0.169	-0.160	-0.074	0.050
-315.101	46.635	-0.082	0.071	-0.078	-0.027
-313.072	250.597	0.042	-0.125	0.004	-0.094
-311.043	331.942	0.023	0.090	0.004	0.020
-309.014	-38.712	-0.154	0.042	-0.065	0.124
-306.985	-200.000	0.001	0.117	0.007	-0.037
-304.955	21.562	0.041	-0.027	-0.131	0.017
-302.926	-32.332	0.039	0.012	0.077	0.121
-300.897	163.333	-0.060	-0.121	0.010	0.033
-298.868	27.158	0.054	-0.038	0.008	-0.045
-296.839	143.482	0.085	-0.154	-0.198	-0.263
-294.809	79.812	0.045	-0.053	0.003	-0.002
-292.780	69.758	0.071	0.076	-0.077	0.165
-290.751	-59.811	-0.076	0.013	-0.059	-0.061
-288.722	700.000	-0.013	0.207	0.012	-0.025
-286.693	70.542	-0.012	0.013	-0.062	0.054
-284.664	61.138	-0.070	-0.070	-0.164	0.132
-282.634	235.610	0.046	-0.130	0.181	-0.000
-280.605	9.495	-0.105	-0.060	0.149	-0.019
-278.576	39.229	0.023	-0.019	0.042	0.001
-276.547	-115.523	0.127	-0.004	-0.063	0.077
-274.518	524.937	-0.005	0.030	0.074	-0.062
-272.488	157.604	0.040	0.079	0.132	-0.058
-270.459	258.376	-0.041	-0.125	-0.044	-0.065
-268.430	-25.432	0.130	-0.044	-0.052	-0.042
-266.401	279.071	-0.032	-0.105	0.057	-0.113
-264.372	407.102	-0.011	0.052	0.017	0.095
-262.342	-106.948	0.132	-0.006	-0.115	0.057
-260.313	98.687	0.024	-0.032	0.090	0.094
-258.284	26.433	-0.085	-0.059	0.036	0.106
-256.255	387.078	-0.030	-0.135	0.089	-0.106
-254.226	144.980	0.047	0.085	-0.044	0.041
-252.196	79.388	0.069	-0.081	-0.088	-0.094
-250.167	16.625	-0.078	0.049	0.128	-0.122
-248.138	67.704	-0.148	-0.156	-0.041	0.115
-246.109	76.969	0.089	0.101	0.108	0.078
-244.080	49.907	0.019	-0.017	0.132	0.013
-242.051	56.194	0.048	0.046	0.028	0.129
-240.021	-7.392	-0.169	-0.076	-0.036	-0.111
-237.992	-23.560	0.062	-0.022	0.042	0.110
-235.963	16.354	-0.096	-0.059	0.096	-0.126
-233.934	8.635	-0.182	-0.102	0.005	-0.063
-231.905	21.462	-0.036	-0.024	-0.004	0.038
-229.875	7.748	0.109	-0.061	0.073	-0.128
-227.846	-20.786	0.139	0.051	-0.031	0.050
-225.817	700.000	-0.014	-0.140	0.050	-0.132
-223.788	27.959	-0.037	0.026	0.023	-0.011
-221.759	-55.115	-0.153	-0.030	-0.088	-0.033
-219.729	46.210	-0.065	-0.056	0.054	-0.009
-217.700	-93.451	-0.037	-0.003	0.043	0.009
-215.671	20.116	-0.106	0.069	-0.070	-0.075
-213.642	-62.539	-0.131	0.022	0.024	0.163
-211.613	152.129	0.053	0.101	-0.016	-0.186
-209.584	256.051	0.017	-0.052	0.104	-0.097
-207.554	65.318	-0.079	0.082	-0.030	-0.088
-205.525	-65.516	-0.041	-0.006	0.044	0.026
-203.496	162.299	-0.106	0.214	-0.036	-0.038
-201.467	700.000	0.003	-0.030	-0.057	0.032
-199.438	40.697	0.060	0.049	0.008	0.018
-197.408	700.000	0.019	-0.177	0.060	-0.050
-195.379	49.039	0.087	-0.077	-0.021	-0.030
-193.350	-49.650	0.084	-0.018	0.097	-0.057
-191.321	-57.014	-0.018	0.003	0.093	-0.019
-189.292	-200.000	0.001	-0.068	-0.035	0.056
-187.262	47.309	0.066	0.057	-0.059	-0.077
-185.233	-17.917	0.086	-0.033	-0.085	0.157
-183.204	29.472	-0.044	-0.032	0.110	0.021
-181.175	34.533	-0.100	-0.076	-0.086	0.011
-179.146	89.636	0.099	-0.125	0.179	-0.047
-177.116	294.602	0.022	-0.078	0.005	-0.121
-175.087	-15.146	0.044	-0.018	0.035	-0.051
-173.058	38.812	-0.126	0.100	0.167	0.170
-171.029	64.084	-0.070	-0.071	0.003	-0.134
-169.000	284.675	0.048	0.163	-0.021	0.056
-166.971	-1.485	-0.082	-0.040	-0.096	0.097
-164.941	100.176	-0.109	-0.149	-0.016	0.041
-162.912	-2.438	0.104	0.050	-0.057	-0.005
-160.883	189.776	-0.023	-0.052	-0.019	-0.131
-158.854	-50.310	0.057	0.012	0.010	0.040
-156.825	71.231	0.027	0.029	-0.108	-0.190
-154.795	153.691	-0.044	-0.085	0.092	0.032
-152.766	-14.960	0.074	0.030	0.057	0.123
-150.737	182.015	0.092	0.205	-0.008	0.110
-148.708	700.000	0.008	-0.155	0.096	0.149
-146.679	7.527	-0.056	-0.031	-0.008	-0.052
-144.649	-85.729	-0.083	0.008	-0.071	0.053
-142.620	-30.943	-0.162	-0.050	-0.039	0.071
-140.591	102.218	0.057	0.079	-0.056	-0.139
-138.562	2.646	0.067	-0.035	0.050	-0.019
-136.533	258.124	0.025	-0.078	-0.046	-0.129
-134.503	14.222	0.169	-0.102	-0.003	0.061
-132.474	700.000	-0.014	-0.121	-0.025	-0.017
-130.445	105.065	-0.037	-0.053	0.015	-0.116
-128.416	-95.190	-0.127	-0.009	-0.046	-0.043
-126.387	625.809	-0.014	-0.093	-0.040	-0.012
-124.358	-109.477	-0.159	0.007	-0.147	-0.105
-122.328	391.181	0.013	-0.060	-0.192	0.061
-120.299	163.773	0.052	0.106	0.071	-0.033
-118.270	45.453	0.007	-0.006	-0.096	0.059
-116.241	-125.054	0.024	0.001	0.161	-0.129
-114.212	206.108	-0.030	0.074	0.015	-0.005
-112.182	30.992	0.133	0.098	0.074	-0.124
-110.153	-5.069	-0.047	-0.022	-0.035	0.116
-108.124	-65.828	-0.044	-0.007	0.089	0.013
-106.095	223.065	0.042	0.112	0.032	0.056
-104.066	102.702	0.061	0.085	0.010	-0.052
-102.036	-54.452	0.057	-0.011	-0.059	0.074
-100.007	-105.666	-0.069	0.003	0.014	-0.039
-97.978	74.876	-0.150	0.177	0.154	-0.032
-95.949	-69.556	0.056	0.010	0.040	-0.059
-93.920	517.313	-0.005	-0.035	-0.080	0.055
-91.891	-56.015	0.081	-0.019	-0.050	0.030
-89.861	71.261	-0.055	-0.051	-0.052	0.093
-87.832	174.535	0.069	0.141	-0.147	-0.003
-85.803	31.035	-0.071	0.058	-0.027	0.059
-83.774	-34.298	-0.097	-0.027	-0.064	-0.055
-81.745	332.412	-0.063	0.225	-0.059	-0.007
-79.715	522.569	-0.020	0.110	-0.055	0.009
-77.686	-101.416	0.004	-0.000	-0.031	0.124
-75.657	-37.631	-0.068	-0.023	0.017	-0.057
-73.628	3.124	-0.047	-0.029	0.022	-0.067
-71.599	-200.000	-0.002	-0.044	0.049	0.064
-69.569	42.835	0.036	0.025	-0.027	-0.002
-67.540	-0.919	0.101	-0.071	0.021	0.075
-65.511	-41.771	-0.227	0.092	-0.240	0.145
-63.482	-200.000	0.005	-0.170	-0.069	-0.187
-61.453	312.366	0.611	-2.521	0.641	-2.407
-59.423	-45.009	-1.520	0.390	-1.167	0.787
-57.394	-2.337	-0.877	-0.480	-0.850	-0.269
-55.365	263.869	-7.735	-33.184	-6.714	-32.695
-53.336	700.000	100.662	943.648	93.008	904.458
-51.307	117.830	2386.719	3452.986	2380.028	3457.207
-49.278	84.185	1881.920	2136.505	1883.871	2144.538
-47.248	67.843	1786.887	2287.792	1773.735	2256.482
-45.219	61.181	1791.394	1987.676	1771.878	1966.637
-43.190	54.696	1757.327	1914.421	1738.327	1895.251
-41.161	37.612	1753.190	1907.127	1735.502	1889.372
-39.132	18.431	1751.287	1904.574	1734.042	1887.689
-37.102	76.578	1746.471	1899.024	1731.506	1885.251
-35.073	87.559	1743.874	1898.215	1727.973	1881.869
-33.044	49.660	1741.197	1893.844	1724.647	1876.561
-31.015	53.865	1738.869	1891.065	1719.936	1871.916
-28.986	87.009	1736.390	1887.642	1719.630	1869.808
-26.956	84.485	1733.136	1883.985	1717.843	1868.068
-24.927	76.003	1730.181	1879.624	1716.952	1866.395
-22.898	56.825	1727.595	1877.677	1713.947	1862.371
-20.869	117.578	1726.971	1875.732	1709.657	1857.911
-18.840	-111.842	1724.283	1872.266	1706.574	1855.175
-16.810	-34.044	1721.701	1869.228	1705.889	1853.044
-14.781	40.369	1719.732	1866.731	1703.487	1850.186
-12.752	-28.687	1717.533	1864.407	1702.199	1848.260
-10.723	46.954	1714.326	1861.000	1698.824	1845.265
-8.694	34.390	1712.456	1859.149	1697.981	1843.005
-6.665	32.454	1710.193	1856.668	1694.691	1841.536
-4.635	38.754	1706.994	1853.070	1695.209	1841.197
-2.606	38.704	1705.949	1850.461	1693.414	1838.358
-0.577	38.613	1703.197	1846.300	1690.638	1837.030
1.452	37.351	1665.586	1781.264	1677.424	1809.609
3.481	33.866	1388.917	1431.046	1424.611	1466.159
5.511	34.206	1269.370	1313.007	1121.952	1154.873
7.540	34.034	1250.503	1291.421	1094.010	1129.576
9.569	33.817	1233.045	1270.691	1067.797	1099.136
11.598	33.899	1227.888	1265.889	1060.719	1092.950
13.627	33.975	1225.453	1263.336	1059.926	1092.453
15.657	33.974	1227.327	1265.763	1061.859	1094.132
17.686	33.966	1224.698	1261.580	1058.717	1090.223
19.715	33.965	1222.921	1260.063	1057.840	1088.768
21.744	33.866	1220.506	1256.680	1057.825	1087.973
23.773	33.855	1214.479	1250.209	1054.216	1084.395
25.802	33.868	1212.506	1248.169	1051.530	1081.897
27.832	33.818	1209.103	1244.070	1048.910	1078.556
29.861	33.377	1202.511	1230.303	1044.859	1054.001
31.890	25.414	1180.858	1105.252	1018.411	927.563
33.919	22.456	1161.290	1051.766	1006.817	901.523
35.948	22.268	1157.967	1043.517	1000.680	890.353
37.978	20.876	1152.214	1031.046	1002.474	891.625
40.007	18.839	1144.259	1023.479	999.133	886.637
42.036	19.739	1145.367	1026.576	996.842	885.518
44.065	18.273	1145.497	1025.002	998.164	886.379
46.094	17.669	1142.869	1023.814	996.606	885.022
48.124	17.706	1143.167	1023.673	995.322	884.154
50.153	17.644	1139.916	1020.091	995.294	883.818
52.182	17.523	1136.166	1015.917	993.405	882.077
54.211	17.612	1133.625	1014.196	992.464	887.886
56.240	18.266	1134.690	1023.080	1012.344	995.737
58.270	26.357	1154.958	1144.310	1022.124	1047.636
60.299	29.528	1162.936	1193.696	1022.751	1061.684
62.328	30.666	1166.785	1212.748	1025.097	1071.153
64.357	31.203	1169.453	1223.352	1025.383	1075.393
66.386	31.180	1172.132	1231.077	1023.356	1075.276
68.415	30.903	1172.350	1233.032	1022.091	1072.710
70.445	25.807	1171.039	1230.645	1017.270	1066.504
72.474	20.727	1165.666	1222.196	1019.405	1067.376
74.503	19.587	1164.606	1220.912	1016.212	1063.116
76.532	19.483	1163.672	1217.894	1015.264	1059.314
78.561	19.112	1158.292	1207.871	1012.117	1055.354
80.591	19.299	1155.774	1206.216	1013.098	1057.944
82.620	19.372	1158.913	1210.257	1012.725	1058.598
84.649	19.508	1154.219	1206.885	1011.030	1056.004
86.678	19.466	1153.987	1206.018	1010.433	1053.806
88.707	19.326	1153.019	1202.056	1008.597	1049.459
90.737	19.195	1151.234	1197.952	1001.800	1038.868
92.766	19.378	1145.370	1188.200	1000.288	1036.376
94.795	19.736	1144.218	1185.245	1002.615	1038.389
96.824	25.305	1141.848	1182.827	1002.698	1038.666
98.853	30.351	1143.724	1186.326	1001.702	1040.629
100.882	32.210	1142.718	1186.528	1001.644	1042.450
102.912	33.013	1140.973	1188.248	998.059	1040.214
104.941	33.449	1138.273	1187.190	995.338	1038.170
106.970	33.649	1138.773	1188.031	995.835	1040.387
108.999	33.686	1136.717	1186.493	997.157	1036.261
111.028	33.132	1136.054	1180.497	995.248	1033.669
113.058	33.123	1136.479	1182.282	992.774	1034.430
115.087	33.326	1135.832	1183.706	991.960	1034.039
117.116	33.236	1133.881	1182.852	991.159	1033.663
119.145	33.144	1131.126	1180.253	987.344	1029.810
121.174	33.388	1127.530	1177.809	985.675	1027.252
123.204	33.417	1127.600	1177.044	988.049	1028.370
125.233	33.308	1126.712	1175.221	985.067	1027.083
127.262	33.280	1129.965	1180.650	982.206	1025.412
129.291	33.167	1126.073	1175.801	983.701	1025.313
131.320	32.873	1124.919	1173.340	979.041	1019.924
133.350	32.601	1124.918	1171.950	978.100	1019.813
135.379	32.590	1119.518	1166.695	979.855	1017.583
137.408	32.423	1117.266	1160.225	974.703	1010.825
139.437	32.519	1113.858	1155.437	975.207	1012.758
141.466	32.908	1114.912	1157.873	975.392	1010.177
143.495	32.743	1114.984	1154.527	970.455	1002.209
145.525	32.743	1113.005	1150.993	969.672	1003.044
147.554	32.868	1110.098	1148.324	969.301	1003.356
149.583	32.792	1109.126	1148.733	966.102	1000.729
151.612	32.785	1105.938	1146.428	964.336	998.764
153.641	33.067	1105.078	1145.963	964.528	997.432
155.671	33.095	1105.726	1144.576	961.042	991.457
157.700	33.025	1103.067	1140.342	959.911	990.847
159.729	32.925	1102.493	1138.581	962.783	995.113
161.758	33.098	1101.264	1139.290	959.983	991.634
163.787	33.137	1100.460	1139.509	956.980	985.891
165.817	33.064	1100.377	1137.911	954.197	984.474
167.846	33.161	1098.280	1135.388	953.122	986.406
169.875	33.318	1097.938	1137.355	953.489	987.549
171.904	33.318	1094.900	1134.552	953.371	987.909
173.933	33.320	1095.218	1134.737	954.306	986.179
175.963	32.996	1093.825	1131.718	949.373	980.301
177.992	32.738	1093.098	1130.452	948.218	979.112
180.021	32.674	1090.874	1126.592	947.863	979.404
182.050	32.720	1084.821	1121.736	948.690	982.316
184.079	32.739	1084.935	1123.686	944.957	976.232
186.108	32.713	1082.135	1119.703	942.139	974.346
188.138	32.889	1081.215	1119.169	942.198	976.274
190.167	33.169	1083.287	1123.230	942.186	976.437
192.196	33.147	1082.273	1122.298	941.945	975.784
194.225	33.192	1080.308	1120.908	940.060	976.723
196.254	33.270	1081.507	1124.740	939.991	976.468
198.284	33.156	1080.764	1123.547	938.454	973.482
200.313	33.133	1079.489	1120.504	938.001	971.861
202.342	33.092	1077.785	1116.307	934.632	966.048
204.371	32.949	1072.955	1109.943	931.314	964.904
206.400	33.119	1072.316	1110.866	931.306	963.002
208.430	33.153	1074.399	1111.714	931.006	961.873
210.459	33.224	1072.983	1109.997	929.408	960.347
212.488	33.278	1069.625	1105.917	927.045	956.791
214.517	33.132	1067.166	1102.274	926.875	956.035
216.546	32.973	1064.053	1098.591	926.008	954.458
218.575	32.820	1062.430	1095.373	927.158	955.022
220.605	32.851	1064.790	1098.105	924.765	952.723
222.634	33.070	1065.163	1098.224	923.960	953.769
224.663	33.147	1060.120	1094.263	923.610	953.467
226.692	33.293	1058.208	1093.561	923.894	952.088
228.721	33.251	1057.938	1091.031	919.820	946.466
230.751	33.432	1056.614	1089.805	916.622	947.158
232.780	33.635	1057.757	1093.632	918.031	946.917
234.809	33.632	1055.327	1088.896	914.603	942.851
236.838	33.765	1053.579	1087.555	914.718	942.698
238.867	33.705	1052.087	1085.593	914.330	943.390
240.897	33.722	1053.798	1088.683	913.380	939.116
242.926	33.294	1050.400	1081.971	909.817	932.665
244.955	32.968	1046.589	1073.992	909.214	933.521
246.984	33.128	1046.913	1075.846	909.166	934.861
249.013	33.052	1041.491	1070.055	907.741	934.079
251.043	33.350	1044.284	1076.133	904.899	929.439
253.072	33.122	1043.239	1072.943	904.251	931.765
255.101	33.288	1040.990	1072.865	905.081	931.831
257.130	33.106	1041.626	1072.985	903.420	930.057
259.159	33.205	1040.712	1073.112	901.053	925.010
261.188	33.028	1039.536	1068.368	903.623	928.236
263.218	33.033	1037.287	1065.240	903.785	931.050
265.247	33.534	1036.223	1068.024	899.838	925.838
267.276	33.358	1035.643	1066.384	898.000	925.156
269.305	33.407	1032.467	1064.727	898.069	925.694
271.334	33.641	1032.274	1063.984	897.019	923.848
273.364	33.555	1032.353	1063.513	897.113	920.038
275.393	33.186	1028.286	1055.473	893.860	914.416
277.422	32.989	1025.002	1049.652	892.116	916.239
279.451	33.407	1027.217	1055.772	892.583	917.444
281.480	33.393	1024.507	1053.353	893.306	920.557
283.510	33.275	1024.678	1056.071	893.429	917.873
285.539	33.070	1021.613	1050.033	889.685	912.709
287.568	33.036	1019.289	1047.158	886.269	911.749
289.597	33.469	1021.697	1052.350	886.402	912.925
291.626	33.545	1020.033	1050.796	888.779	913.302
293.655	33.518	1018.559	1047.480	886.160	911.544
295.685	33.653	1018.132	1048.073	880.398	904.810
297.714	33.652	1015.095	1043.962	880.763	904.345
299.743	33.347	1014.464	1041.631	883.113	905.135
301.772	33.113	1013.522	1039.072	878.606	899.533
303.801	33.417	1010.670	1036.737	876.663	897.613
305.831	33.553	1011.327	1037.631	876.926	897.682
307.860	33.494	1010.176	1035.453	874.835	894.783
309.889	33.532	1009.263	1034.700	874.811	896.368
311.918	33.505	1007.114	1031.985	873.502	894.802
313.947	33.466	1003.350	1029.565	873.815	895.688
315.977	33.066	1001.976	1027.820	873.069	894.369
318.006	33.321	1002.480	1028.285	872.004	894.003
320.035	33.529	1001.033	1026.544	870.320	891.529
322.064	33.768	1000.576	1026.312	868.847	888.511
324.093	33.490	1001.273	1024.252	870.270	889.549
326.123	33.222	998.329	1020.703	867.370	886.516
328.152	33.552	995.923	1020.143	864.438	882.808
330.181	33.528	999.093	1021.236	863.040	883.299
332.210	33.477	996.920	1019.700	863.721	883.170
334.239	33.568	993.916	1016.609	863.537	881.917
336.268	33.587	992.388	1014.937	860.254	878.655
338.298	33.368	991.395	1012.922	859.004	878.560
340.327	33.479	990.301	1013.321	858.245	879.704
342.356	33.724	988.392	1014.412	860.957	881.582
344.385	33.630	985.903	1010.500	858.285	877.293
346.414	33.522	985.138	1008.926	856.217	874.100
348.444	33.329	985.481	1006.827	856.214	875.891
350.473	33.540	983.929	1006.780	854.138	874.702
352.502	33.814	983.570	1008.428	853.114	873.154
354.531	33.813	982.956	1007.443	852.998	871.159
356.560	33.594	978.501	1000.129	852.804	870.060
358.590	33.481	975.305	995.826	849.059	865.064
360.619	33.423	973.730	993.273	847.027	862.168
362.648	33.170	975.451	993.258	846.523	861.545
364.677	33.080	976.700	994.672	846.301	860.847
366.706	33.119	976.332	993.968	844.353	860.149
368.736	33.149	972.391	989.909	844.597	860.278
370.765	33.302	970.074	988.758	845.934	861.581
372.794	33.456	971.416	990.495	842.908	858.359
374.823	33.443	969.239	988.736	841.503	856.775
376.852	33.271	967.151	985.489	840.301	855.273
378.881	33.405	967.736	986.479	838.685	854.411
380.911	33.721	966.200	985.395	838.440	853.145
382.940	33.539	964.516	981.463	835.355	849.151
384.969	33.521	962.365	979.743	834.690	847.185
386.998	33.266	960.580	976.673	834.425	847.055
389.027	33.366	960.294	976.726	833.576	846.042
391.057	33.568	960.459	976.816	832.725	845.255
393.086	33.707	958.547	975.128	831.064	844.742
395.115	33.607	960.017	976.707	832.616	846.659
397.144	33.428	957.514	974.370	832.576	847.245
399.173	33.327	955.187	971.637	828.482	841.997
401.203	33.260	953.868	970.644	827.546	840.361
403.232	33.102	949.877	965.624	828.005	840.411
405.261	33.211	949.101	964.855	824.622	836.362
407.290	33.151	949.399	964.132	823.635	834.989
409.319	33.222	947.604	962.664	822.708	834.446
411.348	33.345	945.089	960.176	823.254	835.204
413.378	33.463	945.148	960.493	820.326	831.294
415.407	33.302	942.559	956.626	820.881	831.712
417.436	33.304	942.999	956.880	819.828	831.903
419.465	33.471	941.824	956.479	818.035	831.013
421.494	33.546	939.815	955.847	820.035	833.879
423.524	33.548	939.392	956.448	816.012	827.652
425.553	33.353	937.721	952.456	815.508	827.517
427.582	33.414	934.404	949.639	816.447	827.748
429.611	33.412	934.739	949.384	815.024	827.717
431.640	33.497	935.287	949.915	813.403	827.396
433.670	33.701	933.093	948.950	812.291	825.749
435.699	33.703	931.673	946.947	811.169	822.955
437.728	33.552	931.108	944.979	810.017	820.990
439.757	33.479	929.400	942.803	807.380	817.105
441.786	33.273	927.297	938.391	806.542	817.112
443.816	33.427	924.065	936.048	806.666	816.257
445.845	33.459	924.082	936.741	803.546	813.166
447.874	33.362	921.765	933.381	802.636	812.821
449.903	33.401	921.246	932.669	803.499	812.136
451.932	33.406	921.974	932.607	803.211	811.887
453.961	33.316	920.531	930.317	801.740	809.448
455.991	33.188	920.039	928.942	800.608	807.701
458.020	33.186	918.199	926.253	800.361	806.891
460.049	33.347	918.553	926.660	799.703	806.763
462.078	33.432	918.460	926.156	798.319	804.682
464.107	33.399	915.849	923.698	796.526	802.261
466.137	33.332	912.621	919.923	793.743	798.859
468.166	33.185	912.000	918.003	792.635	797.696
470.195	33.153	911.626	917.009	792.053	796.661
472.224	33.304	910.353	915.909	791.968	797.067
474.253	33.435	908.450	914.572	791.763	797.618
476.283	33.375	908.170	914.795	790.918	797.424
478.312	33.429	905.397	912.939	788.155	793.854
480.341	33.253	902.742	909.484	786.458	793.689
482.370	33.352	901.595	909.929	787.027	796.255
484.399	33.667	904.995	915.348	784.222	791.733
486.428	33.583	902.903	911.843	782.605	787.294
488.458	33.255	899.632	905.933	783.507	788.953
490.487	33.168	897.070	902.823	782.298	789.163
492.516	33.425	897.711	906.486	781.506	787.220
494.545	33.179	898.915	905.584	781.418	786.755
496.574	33.019	897.828	903.660	779.778	785.189
498.604	33.086	896.775	903.105	780.511	785.230
500.633	33.162	894.548	900.882	779.072	785.465
502.662	33.301	892.047	899.424	779.534	787.424
504.691	33.387	892.407	901.548	778.148	785.229
506.720	33.296	892.558	901.236	778.159	785.795
508.750	33.394	889.974	899.459	776.134	783.942
510.779	33.497	888.729	898.749	774.352	780.971
512.808	33.473	888.394	897.476	774.088	780.541
514.837	33.532	889.040	898.232	768.473	773.209
516.866	33.385	886.699	893.311	768.018	771.929
518.896	33.142	884.725	888.844	768.841	773.315
520.925	33.290	884.722	890.093	766.793	769.004
522.954	33.310	883.279	886.648	766.477	769.336
524.983	33.336	881.228	883.802	767.037	770.588
527.012	33.364	879.338	884.206	766.564	769.353
529.041	33.178	878.858	882.966	767.327	772.048
531.071	33.482	876.733	882.093	764.866	768.835
533.100	33.531	875.244	880.523	763.557	765.625
535.129	33.235	875.024	878.489	761.326	763.039
537.158	33.171	875.984	878.160	762.180	763.802
539.187	33.224	874.283	876.110	761.236	762.270
541.217	33.129	871.961	872.383	756.871	757.919
543.246	33.454	872.232	874.313	755.347	755.282
545.275	33.457	872.608	873.391	757.923	757.917
547.304	33.468	867.873	867.150	756.910	756.324
549.333	33.545	866.194	866.031	753.198	752.216
551.363	33.379	863.902	862.931	754.963	754.976
553.392	33.517	867.701	868.237	752.027	751.839
555.421	33.372	867.394	867.974	748.496	747.316
557.450	33.069	864.816	864.143	747.260	745.516
559.479	32.909	863.146	861.020	744.590	742.644
561.509	32.892	861.803	859.561	745.349	743.552
563.538	32.760	859.980	857.389	743.323	741.901
565.567	33.029	856.412	854.964	738.535	736.658
567.596	33.088	855.856	854.347	738.314	737.045
569.625	33.255	855.707	854.633	739.596	737.356
571.654	33.229	856.043	854.252	737.330	736.923
573.684	33.271	854.961	855.168	737.727	737.089
575.713	33.066	853.603	853.064	736.504	735.760
577.742	33.127	851.668	851.524	736.259	736.749
579.771	33.249	852.580	853.848	734.517	733.544
581.800	33.274	852.979	854.020	731.768	732.397
583.830	33.369	852.169	853.901	731.750	733.352
585.859	33.379	851.602	854.076	731.258	732.679
587.888	33.281	850.932	852.930	730.602	731.747
589.917	33.358	849.754	852.698	729.949	729.735
591.946	33.404	848.887	851.094	728.005	728.152
593.976	33.498	846.440	848.487	725.332	725.693
596.005	33.468	843.859	846.222	725.117	725.418
598.034	33.329	842.825	844.813	723.647	724.458
600.063	33.374	841.140	843.670	723.225	723.074
602.092	33.257	837.130	838.114	721.458	720.491
604.121	33.149	837.203	836.244	718.442	717.440
606.151	33.081	838.704	836.864	714.929	713.766
608.180	33.130	836.017	833.692	714.802	713.318
610.209	33.170	834.789	832.746	713.837	712.080
612.238	33.270	835.020	833.111	711.990	710.222
614.267	33.351	832.086	830.017	710.691	709.120
616.297	33.345	830.648	828.699	710.876	709.245
618.326	33.424	830.805	828.464	709.593	707.666
620.355	33.499	828.769	826.070	710.012	707.782
622.384	33.568	829.139	826.430	708.203	706.739
624.413	33.653	827.222	824.089	707.856	705.758
626.443	33.540	821.881	818.166	706.237	703.686
628.472	33.639	822.886	819.526	703.638	701.062
630.501	33.708	823.052	819.880	701.418	699.144
632.530	33.624	822.464	818.709	704.315	702.082
634.559	33.739	821.231	817.761	702.792	700.344
636.589	33.666	820.316	816.487	701.805	698.579
638.618	33.696	818.007	813.945	701.739	698.832
640.647	33.617	816.973	813.132	699.472	696.541
642.676	33.369	814.418	809.905	699.044	696.184
644.705	33.427	813.189	808.960	699.729	696.378
646.734	33.425	813.229	809.065	697.093	693.642
648.764	33.349	812.148	807.471	696.636	693.220
650.793	33.362	810.298	805.666	697.139	694.111
652.822	33.416	811.581	806.969	694.126	690.360
654.851	33.333	812.500	807.057	691.545	689.007
656.880	33.478	811.414	807.243	691.387	690.276
658.910	33.418	808.427	804.003	690.190	688.195
660.939	33.414	806.224	801.233	688.457	687.174
662.968	33.413	804.032	798.615	689.071	686.836
664.997	33.392	804.708	799.076	689.216	687.211
667.026	33.286	804.411	798.114	688.384	686.269
669.056	33.449	803.332	798.522	687.397	684.311
671.085	33.496	801.956	797.178	686.289	684.144
673.114	33.580	800.201	795.507	685.113	681.784
675.143	33.467	797.499	792.261	684.442	680.643
677.172	33.191	798.173	790.547	682.136	677.720
679.202	33.352	797.250	790.683	679.805	673.984
681.231	33.114	796.307	787.565	679.572	674.195
683.260	33.076	795.279	786.362	678.911	672.915
685.289	33.068	793.172	784.257	678.052	671.070
687.318	32.919	793.108	782.701	676.180	669.540
689.347	33.073	789.185	779.799	674.623	666.934
691.377	32.975	787.047	776.627	673.470	665.857
693.406	33.058	788.855	779.037	674.200	665.693
695.435	32.977	787.544	776.409	674.391	665.413
697.464	32.967	784.244	772.088	673.520	664.446
699.493	32.944	783.676	771.438	673.672	665.235
701.523	33.081	781.012	770.071	674.377	666.822
703.552	33.149	782.216	771.975	672.328	664.198
705.581	33.048	780.944	770.208	668.240	658.850
707.610	32.977	777.274	765.085	668.229	659.008
709.639	33.239	777.839	767.216	667.428	658.422
711.669	33.100	774.969	763.019	669.826	661.465
713.698	32.998	769.970	757.919	667.456	659.183
715.727	32.873	769.602	758.001	666.001	657.080
717.756	32.977	771.690	760.301	666.378	657.907
719.785	32.896	770.395	758.844	665.848	656.984
721.814	32.810	768.046	756.095	663.769	655.495
723.844	32.880	767.960	756.388	662.349	655.810
725.873	32.985	767.932	758.508	661.426	654.867
727.902	32.997	768.292	758.782	661.504	653.736
729.931	32.790	765.453	754.436	660.027	652.330
731.960	32.920	763.999	753.905	660.177	650.681
733.990	32.596	761.707	749.134	660.002	651.366
736.019	32.615	760.478	748.292	659.417	650.980
738.048	32.717	760.818	749.352	657.796	649.002
740.077	32.609	757.409	744.653	658.305	650.595
742.106	32.981	756.439	745.849	658.045	651.823
744.136	33.207	759.061	749.850	655.728	649.496
746.165	33.027	757.592	747.592	654.511	648.933
748.194	33.166	758.219	749.337	653.232	648.024
750.223	33.203	757.763	748.662	654.028	647.468
752.252	33.080	756.233	746.033	652.193	644.818
754.282	33.235	755.724	746.019	650.589	641.896
756.311	33.078	753.420	742.183	650.418	641.394
758.340	32.956	752.470	739.858	650.727	641.255
760.369	32.948	750.437	737.572	649.821	639.284
762.398	32.970	749.886	736.941	649.498	639.950
764.427	33.249	748.316	736.225	646.948	637.565
766.457	33.344	747.472	735.136	644.852	633.776
768.486	33.063	746.236	732.799	645.016	634.129
770.515	32.895	743.412	728.689	646.042	637.263
772.544	33.224	743.805	731.957	645.670	636.673
774.573	33.213	743.674	732.372	642.153	631.149
776.603	33.184	741.178	728.323	641.148	629.874
778.632	33.076	741.088	727.157	641.098	630.094
780.661	33.095	742.207	727.999	641.586	629.575
782.690	33.155	740.987	725.929	639.956	627.716
784.719	33.126	739.692	723.888	639.831	627.064
786.749	33.168	737.714	721.462	638.495	625.369
788.778	33.126	736.384	719.658	637.055	623.824
790.807	33.058	735.675	718.843	636.439	623.262
792.836	33.236	735.921	720.098	636.858	624.599
794.865	33.127	736.234	720.327	636.859	624.519
796.894	32.967	735.358	719.711	635.318	622.468
798.924	32.889	734.141	717.885	634.060	620.831
800.953	32.979	732.793	717.150	633.572	621.013
802.982	33.044	732.065	716.717	632.269	619.861
805.011	33.119	731.922	716.321	631.632	619.679
807.040	33.099	730.113	715.031	629.507	617.651
809.070	33.059	727.314	712.827	628.616	617.406
811.099	33.260	726.469	711.928	628.504	617.219
813.128	33.485	726.946	712.338	627.021	614.611
815.157	33.308	725.531	710.439	627.651	615.447
817.186	32.976	724.667	708.519	627.166	615.906
819.216	33.246	724.449	710.281	626.929	615.605
821.245	33.226	724.127	710.032	625.536	615.371
823.274	33.203	723.382	709.774	625.338	614.926
825.303	33.212	722.713	709.686	625.272	613.772
827.332	33.062	722.455	708.119	623.283	611.447
829.362	32.952	721.809	706.492	621.876	610.294
831.391	32.948	719.150	703.466	622.013	610.277
833.420	32.961	718.464	702.363	621.349	610.367
835.449	33.278	719.242	704.967	619.873	608.203
837.478	33.109	716.256	700.918	619.769	606.984
839.507	32.925	716.143	699.189	618.676	605.085
841.537	32.907	714.650	697.087	616.727	603.431
843.566	33.010	712.987	695.506	616.053	603.076
845.595	33.092	713.847	696.761	614.147	600.616
847.624	33.122	711.235	693.497	614.133	600.173
849.653	33.181	710.051	692.763	613.257	599.089
851.683	33.060	709.807	691.791	610.934	597.325
853.712	33.190	710.431	692.803	610.276	596.199
855.741	33.115	708.171	690.316	610.721	596.415
857.770	33.222	707.945	690.371	609.737	595.616
859.799	33.419	709.145	692.254	609.874	596.010
861.829	33.519	707.624	690.329	609.282	595.128
863.858	33.500	704.699	686.641	607.283	592.664
865.887	33.272	704.264	685.190	607.018	591.841
867.916	33.160	703.067	684.338	605.456	589.775
869.945	33.107	702.249	683.046	603.836	588.306
871.975	32.984	700.767	680.744	603.278	587.319
874.004	33.255	699.659	680.507	603.260	587.849
876.033	33.274	700.063	681.035	603.081	588.476
878.062	33.301	698.603	680.551	602.320	587.078
880.091	33.109	697.947	679.448	600.566	584.964
882.120	33.001	696.946	677.878	600.784	585.744
884.150	33.186	696.761	678.484	600.425	584.916
886.179	33.174	697.372	678.894	598.235	581.891
888.208	33.021	694.847	675.584	598.296	581.596
890.237	32.950	693.257	673.395	599.036	582.387
892.266	32.976	692.889	672.786	597.643	580.001
894.296	32.995	691.238	670.943	595.700	578.364
896.325	32.976	689.730	668.857	593.099	576.681
898.354	33.218	689.985	670.099	592.422	576.092
900.383	33.251	691.101	671.532	592.419	577.386
902.412	33.305	689.426	670.634	593.441	579.505
904.442	33.347	688.392	670.679	593.019	578.648
906.471	33.323	687.368	669.815	592.119	576.338
908.500	33.154	686.891	668.053	591.339	574.574
910.529	32.977	685.414	665.376	589.785	574.124
912.558	33.206	685.484	666.410	588.790	573.484
914.587	33.342	685.805	666.936	588.935	574.174
916.617	33.572	682.289	664.422	588.358	571.638
918.646	33.332	680.642	661.303	587.676	570.035
920.675	33.085	680.431	659.345	586.785	569.426
922.704	33.118	680.953	659.937	585.770	569.270
924.733	33.181	679.515	658.890	586.717	569.301
926.763	33.176	678.030	657.349	585.781	568.032
928.792	32.972	676.922	654.741	583.437	565.787
930.821	33.082	677.474	656.740	583.460	565.007
932.850	33.009	677.817	656.563	583.310	565.387
934.879	32.879	675.208	652.954	581.533	564.568
936.909	33.161	675.071	654.355	580.737	563.436
938.938	33.264	674.059	653.290	579.713	562.705
940.967	33.345	673.718	652.798	577.799	560.567
942.996	33.502	672.495	651.530	577.403	560.147
945.025	33.532	670.771	649.415	577.819	559.962
947.055	33.433	669.664	648.034	577.999	559.715
949.084	33.117	668.073	645.426	577.019	558.323
951.113	33.203	667.839	645.601	576.098	557.893
953.142	33.312	665.532	643.091	574.345	555.808
955.171	33.390	665.817	643.125	574.700	556.482
957.200	33.340	667.638	645.357	573.705	555.364
959.230	33.238	663.581	641.740	572.551	555.225
961.259	33.270	662.356	641.064	572.831	555.743
963.288	33.516	664.800	644.611	571.949	553.635
965.317	33.459	664.826	643.590	571.399	554.319
967.346	33.508	661.394	641.440	570.583	552.849
969.376	33.293	659.937	638.558	568.202	548.643
971.405	33.140	660.966	638.305	567.967	549.908
973.434	33.335	661.656	640.100	567.953	550.734
975.463	33.509	660.358	639.192	566.556	547.850
977.492	33.405	658.425	635.915	566.718	547.320
979.522	33.217	656.591	633.066	564.070	541.651
981.551	32.862	655.774	629.700	564.721	544.761
983.580	33.182	656.097	632.389	564.909	546.372
985.609	33.366	654.811	632.413	563.769	545.157
987.638	33.280	653.871	631.684	562.699	544.025
989.667	33.294	651.788	629.705	563.036	544.146
991.697	33.218	651.929	629.070	561.664	542.704
993.726	33.237	653.059	630.284	561.196	540.128
995.755	33.000	650.933	626.139	560.962	540.056
997.784	33.109	647.911	622.976	560.246	540.924
999.813	33.449	648.151	624.784	559.361	539.344
1001.843	33.446	647.223	623.306	557.944	538.057
1003.872	33.356	645.091	620.947	557.939	536.923
1005.901	33.303	644.035	618.743	556.667	535.879
1007.930	33.391	644.579	619.967	554.455	531.999
1009.959	33.035	643.615	618.089	555.251	533.222
1011.989	32.873	642.271	615.556	553.606	530.292
1014.018	32.968	640.897	613.276	554.876	534.008
1016.047	33.210	642.166	616.722	554.709	534.468
1018.076	33.248	640.655	616.321	552.878	532.060
1020.105	32.956	639.332	614.970	552.039	531.206
1022.135	32.929	638.024	613.116	551.892	530.850
1024.164	33.290	638.639	613.822	551.271	531.486
1026.193	33.578	636.017	612.123	549.931	527.843
1028.222	33.165	636.950	610.353	549.245	527.446
1030.251	33.186	636.925	611.126	547.669	527.095
1032.280	33.363	636.026	611.125	547.531	525.751
1034.310	33.086	634.887	609.223	548.579	526.471
1036.339	32.863	633.786	607.456	546.978	524.119
1038.368	32.887	633.844	606.553	544.931	521.679
1040.397	32.949	631.848	604.539	544.366	522.218
1042.426	33.190	630.335	604.299	544.155	522.010
1044.456	32.912	629.221	602.655	544.117	522.491
1046.485	33.041	629.315	603.337	544.694	522.683
1048.514	32.978	627.947	601.618	543.966	522.439
1050.543	32.968	626.971	601.384	541.706	520.249
1052.572	32.797	625.280	599.579	540.281	518.342
1054.602	32.909	625.852	599.836	541.330	520.312
1056.631	33.425	625.911	601.249	540.646	520.316
1058.660	33.499	625.176	600.933	540.376	520.278
1060.689	33.558	624.254	600.507	539.435	519.294
1062.718	33.496	623.100	598.702	537.960	516.211
1064.748	33.447	622.560	597.001	537.205	516.031
1066.777	33.219	621.481	595.989	536.370	514.256
1068.806	33.070	619.763	593.446	533.843	510.957
1070.835	33.050	617.813	590.454	533.656	510.106
1072.864	33.132	618.319	591.198	532.895	510.315
1074.893	32.999	619.062	591.896	531.693	507.313
1076.923	32.668	617.141	588.337	533.245	508.778
1078.952	32.618	615.613	586.313	532.942	508.411
1080.981	32.711	615.164	586.076	532.175	508.338
1083.010	32.924	615.861	587.728	531.385	508.265
1085.039	33.086	614.347	586.724	530.285	506.546
1087.069	33.045	612.611	584.672	530.125	506.036
1089.098	32.920	610.920	581.932	529.122	504.200
1091.127	32.885	609.690	579.580	528.787	503.361
1093.156	32.742	609.297	578.966	527.759	502.942
1095.185	32.924	609.764	579.950	526.932	501.328
1097.215	32.968	609.689	579.269	526.198	499.661
1099.244	32.808	606.577	574.533	525.143	498.847
1101.273	32.998	605.330	574.231	524.561	499.357
1103.302	32.959	605.069	574.929	523.472	498.188
1105.331	32.933	603.367	573.459	522.587	497.832
1107.360	33.014	602.835	573.467	522.086	496.729
1109.390	32.654	603.016	572.210	521.812	495.690
1111.419	32.415	601.279	569.811	521.906	495.048
1113.448	32.478	600.210	568.427	521.439	495.256
1115.477	32.702	601.141	571.197	519.996	494.739
1117.506	32.552	599.520	569.335	518.391	492.337
1119.536	32.507	598.260	567.972	518.404	493.379
1121.565	32.618	599.045	569.080	518.306	494.796
1123.594	33.114	596.494	568.490	519.173	495.521
1125.623	33.098	595.772	567.459	518.356	494.741
1127.652	33.135	596.338	568.626	517.833	494.765
1129.682	32.924	593.897	566.375	518.201	494.380
1131.711	32.622	593.650	565.363	515.556	491.337
1133.740	32.621	592.934	563.829	514.603	490.820
1135.769	32.700	590.384	561.224	513.358	489.497
1137.798	32.649	590.271	561.241	513.380	489.602
1139.828	32.646	590.047	561.440	513.094	489.242
1141.857	32.712	589.377	560.334	513.030	488.470
1143.886	32.678	588.841	558.627	512.296	485.929
1145.915	32.453	588.984	557.096	510.688	484.437
1147.944	32.554	588.305	557.319	509.825	485.166
1149.973	32.732	586.486	557.062	509.255	484.228
1152.003	32.508	584.645	554.716	508.103	482.306
1154.032	32.630	584.582	554.523	507.553	481.672
1156.061	32.726	585.082	554.042	507.589	480.020
1158.090	32.437	584.065	551.459	506.562	478.087
1160.119	32.268	583.073	549.175	504.669	475.137
1162.149	32.470	581.668	547.282	503.962	474.525
1164.178	32.406	578.861	543.980	503.219	474.430
1166.207	32.480	578.602	544.103	504.068	476.685
1168.236	32.948	580.323	547.802	504.086	476.602
1170.265	33.022	580.249	548.426	503.211	476.977
1172.295	33.025	579.394	548.528	501.898	476.107
1174.324	33.110	579.158	548.571	501.831	475.800
1176.353	33.064	577.300	546.023	499.725	472.699
1178.382	32.877	576.105	543.704	499.717	472.918
1180.411	32.994	575.825	544.328	500.411	475.065
1182.441	33.175	574.996	544.859	499.736	473.957
1184.470	32.975	574.761	544.777	499.282	473.992
1186.499	32.920	572.682	542.748	499.991	475.546
1188.528	33.495	573.639	544.894	499.691	475.616
1190.557	33.551	573.352	544.780	498.135	473.418
1192.586	33.308	573.085	543.638	496.049	470.061
1194.616	32.812	571.848	540.215	494.143	466.322
1196.645	32.411	569.624	536.680	491.888	459.558
1198.674	31.322	568.191	530.333	485.991	434.370
1200.703	26.445	560.370	495.721	475.998	389.984
1202.732	19.307	550.578	448.093	471.901	384.648
1204.762	18.872	547.352	442.830	470.169	380.444
1206.791	18.461	545.335	437.850	469.509	379.926
1208.820	18.458	543.265	435.036	469.062	379.111
1210.849	18.683	541.922	434.385	467.731	378.132
1212.878	18.685	540.383	432.736	467.215	377.440
1214.908	18.546	538.304	430.564	464.911	375.818
1216.937	18.462	537.796	430.304	463.148	373.463
1218.966	18.665	536.541	430.326	464.211	374.794
1220.995	18.465	533.427	425.914	463.450	374.036
1223.024	18.721	532.953	426.261	462.134	372.764
1225.053	20.914	536.332	439.792	466.109	394.348
1227.083	29.812	545.585	494.835	470.283	430.189
1229.112	30.857	547.815	502.074	471.906	433.397
1231.141	31.278	548.473	505.531	471.704	435.674
1233.170	31.198	548.939	507.118	471.117	435.437
1235.199	30.657	549.050	507.113	471.708	435.966
1237.229	29.683	547.865	506.101	470.764	434.985
1239.258	26.765	547.730	506.036	470.762	434.731
1241.287	19.890	547.415	505.122	469.908	434.057
1243.316	17.105	545.205	503.100	468.164	432.000
1245.345	16.996	544.370	502.706	467.765	431.960
1247.375	16.955	544.483	502.426	467.731	432.084
1249.404	16.982	542.418	500.741	467.521	431.640
1251.433	15.865	566.771	516.216	468.178	431.587
1253.462	22.336	570.135	560.901	540.888	513.874
1255.491	15.147	424.131	383.065	418.498	389.522
1257.521	21.086	391.693	379.467	377.748	361.129
1259.550	20.879	377.976	364.960	368.648	357.650
1261.579	21.557	373.592	361.923	363.457	350.998
1263.608	22.844	372.476	361.199	361.941	350.147
1265.637	29.792	371.929	360.482	361.102	349.416
1267.666	33.544	371.123	359.752	360.397	348.285
1269.696	33.984	370.930	359.200	360.037	347.991
1271.725	33.958	370.297	358.487	359.559	347.475
1273.754	33.918	369.845	357.953	359.097	346.972
1275.783	33.987	369.005	357.236	358.865	346.778
1277.812	34.003	368.635	356.735	358.253	346.565
1279.842	34.063	368.452	356.580	357.812	345.492
1281.871	34.082	368.179	356.256	357.224	345.240
1283.900	34.073	367.616	355.722	357.066	344.778
1285.929	34.007	366.646	354.815	356.766	344.226
1287.958	34.130	365.884	353.865	356.496	344.039
1289.988	34.019	366.009	354.047	356.260	343.904
1292.017	33.858	365.761	353.539	355.644	343.387
1294.046	37.270	365.443	353.608	354.847	342.718
1296.075	38.891	364.793	353.091	354.598	342.280
1298.104	38.952	364.509	352.564	354.117	342.043
1300.133	38.964	363.815	351.909	353.666	341.423
1302.163	39.008	363.446	351.541	353.107	341.028
1304.192	24.473	822.682	678.749	778.103	645.305
1306.221	51.871	952.808	1049.434	925.634	1035.688
1308.250	-45.955	218.525	62.255	212.844	61.144
1310.279	47.453	92.236	97.281	86.733	90.339
1312.309	-35.891	22.753	7.841	21.196	7.671
1314.338	-121.173	1.013	-0.031	1.079	0.090
1316.367	60.193	-0.167	-0.198	-0.149	-0.348
1318.396	27.140	-0.345	-0.294	-0.216	-0.226
1320.425	34.880	-0.434	-0.402	-0.289	-0.392
1322.455	32.080	-0.422	-0.379	-0.264	-0.369
1324.484	37.906	-0.589	-0.562	-0.240	-0.398
1326.513	82.696	-0.492	-0.710	-0.366	-0.445
1328.542	95.710	-0.476	-0.760	-0.523	-0.497
1330.571	64.309	-0.459	-0.566	-0.470	-0.674
1332.601	63.502	-0.527	-0.646	-0.373	-0.638
1334.630	32.340	-0.639	-0.574	-0.483	-0.346
1336.659	55.121	-0.476	-0.540	-0.443	-0.402
1338.688	65.237	-0.554	-0.688	-0.421	-0.451
1340.717	36.296	-0.612	-0.566	-0.452	-0.572
1342.746	63.354	-0.644	-0.699	-0.548	-0.543
1344.776	74.492	-0.515	-0.644	-0.411	-0.573
1346.805	106.995	-0.469	-0.642	-0.431	-0.610
1348.834	153.480	-0.545	-0.626	-0.434	-0.598
1350.863	700.000	-0.462	-0.508	-0.462	-0.414
1352.892	436.634	-0.411	-0.718	-0.479	-0.541
1354.922	-20.234	-0.520	-0.560	-0.437	-0.556
1356.951	700.000	-0.553	-0.600	-0.486	-0.547
1358.980	561.050	-0.501	-0.658	-0.474	-0.612
1361.009	-55.339	-0.640	-0.610	-0.514	-0.454
1363.038	143.887	-0.460	-0.612	-0.523	-0.366
1365.068	103.733	-0.535	-0.668	-0.416	-0.684
1367.097	133.433	-0.551	-0.761	-0.435	-0.631
1369.126	62.795	-0.540	-0.699	-0.527	-0.608
1371.155	300.517	-0.383	-0.542	-0.563	-0.585
1373.184	239.826	-0.583	-0.541	-0.465	-0.591
1375.214	45.505	-0.587	-0.773	-0.454	-0.625
1377.243	-116.121	-0.557	-0.558	-0.426	-0.604
1379.272	-7.845	-0.590	-0.530	-0.407	-0.613
1381.301	8.044	-0.637	-0.659	-0.482	-0.552
1383.330	-85.900	-0.544	-0.510	-0.447	-0.571
1385.359	35.189	-0.465	-0.561	-0.246	-0.466
1387.389	52.116	-0.507	-0.644	-0.469	-0.507
1389.418	49.619	-0.376	-0.657	-0.521	-0.568
1391.447	286.427	-0.528	-0.507	-0.507	-0.492
1393.476	-47.222	-0.679	-0.635	-0.393	-0.470
1395.505	48.498	-0.419	-0.704	-0.384	-0.535
1397.535	101.366	-0.353	-0.578	-0.426	-0.560
